  Element 47: Ag      Atomic mass:  107.8682

  Edge          keV         A
    K        25.5140    0.4859
    L-I       3.8058    3.2578
    L-II      3.5237    3.5186
    L-III     3.3511    3.6998

Scattering factors as a function of energy: 

   1000.000      -7.935904       17.39064    
   1100.000      -6.899405       15.52683    
   1200.000      -6.208765       13.93687    
   1300.000      -5.763420       12.57603    
   1400.000      -5.472655       11.40256    
   1500.000      -5.387574       10.38850    
   1600.000      -5.305234       9.517872    
   1700.000      -5.286952       8.754119    
   1800.000      -5.322636       8.079901    
   1900.000      -5.396902       7.481548    
   2000.000      -5.507080       6.947594    
   2100.000      -5.649725       6.468875    
   2200.000      -5.823312       6.037842    
   2300.000      -6.072729       5.649004    
   2400.000      -6.310784       5.300811    
   2500.000      -6.612989       4.986920    
   2600.000      -6.930527       4.700926    
   2700.000      -7.301167       4.439295    
   2800.000      -7.741024       4.199265    
   2900.000      -8.286263       3.978750    
   3000.000      -8.962955       3.776069    
   3100.000      -9.873347       3.591248    
   3200.000      -11.24237       3.420275    
   3254.000      -12.41060       3.333211    
   3259.000      -12.54840       3.325325    
   3264.000      -12.69344       3.317470    
   3269.000      -12.84655       3.309643    
   3274.000      -13.00871       3.301846    
   3279.000      -13.18109       3.294076    
   3284.000      -13.36510       3.286336    
   3289.000      -13.56254       3.278625    
   3294.000      -13.77555       3.270941    
   3299.000      -14.00697       3.263286    
   3300.000      -14.05575       3.261759    
   3304.000      -14.26040       3.255659    
   3309.000      -14.54072       3.248060    
   3314.000      -14.85461       3.240489    
   3319.000      -15.21171       3.232945    
   3324.000      -15.62649       3.225429    
   3329.000      -16.12245       3.217940    
   3334.000      -16.74127       3.210479    
   3339.000      -17.56866       3.203045    
   3344.000      -18.83266       3.195637    
   3349.000      -21.69339       3.188257    
   3354.000      -20.96567       10.51790    
   3359.000      -18.64892       10.50880    
   3364.000      -17.52874       10.49956    
   3369.000      -16.79008       10.49020    
   3374.000      -16.24242       10.48071    
   3379.000      -15.81021       10.47108    
   3384.000      -15.45566       10.46133    
   3389.000      -15.15723       10.45145    
   3394.000      -14.90142       10.44144    
   3399.000      -14.67934       10.43131    
   3400.000      -14.63838       10.42927    
   3404.000      -14.48474       10.42105    
   3409.000      -14.31318       10.41067    
   3414.000      -14.16134       10.40016    
   3419.000      -14.02677       10.38953    
   3424.000      -13.90760       10.37878    
   3426.000      -13.86391       10.37444    
   3429.000      -13.80241       10.36791    
   3431.000      -13.76401       10.36352    
   3434.000      -13.71017       10.35691    
   3436.000      -13.67671       10.35248    
   3439.000      -13.63011       10.34579    
   3441.000      -13.60137       10.34131    
   3444.000      -13.56173       10.33456    
   3446.000      -13.53758       10.33003    
   3449.000      -13.50477       10.32320    
   3451.000      -13.48517       10.31863    
   3456.000      -13.44419       10.30711    
   3461.000      -13.41494       10.29548    
   3466.000      -13.39802       10.28372    
   3471.000      -13.39435       10.27186    
   3476.000      -13.40533       10.25988    
   3481.000      -13.43297       10.24778    
   3486.000      -13.48020       10.23558    
   3491.000      -13.55132       10.22326    
   3496.000      -13.65301       10.21083    
   3500.000      -13.76338       10.20080    
   3501.000      -13.79604       10.19829    
   3506.000      -13.99955       10.18564    
   3511.000      -14.30224       10.17288    
   3516.000      -14.80437       10.16001    
   3521.000      -15.94370       10.14704    
   3526.000      -16.05472       13.80017    
   3531.000      -14.63104       13.78550    
   3536.000      -13.94872       13.77067    
   3541.000      -13.47930       13.75567    
   3546.000      -13.11361       13.74051    
   3551.000      -12.80997       13.72519    
   3556.000      -12.54792       13.70971    
   3561.000      -12.31585       13.69406    
   3566.000      -12.10658       13.67826    
   3571.000      -11.91530       13.66231    
   3576.000      -11.73866       13.64619    
   3581.000      -11.57422       13.62993    
   3586.000      -11.42015       13.61351    
   3591.000      -11.27502       13.59693    
   3596.000      -11.13774       13.58021    
   3600.000      -11.03295       13.56673    
   3601.000      -11.00740       13.56334    
   3606.000      -10.88330       13.54632    
   3611.000      -10.76482       13.52915    
   3616.000      -10.65148       13.51184    
   3621.000      -10.54286       13.49438    
   3700.000      -9.283556       13.20027    
   3708.000      -9.196133       13.16868    
   3713.000      -9.145270       13.14878    
   3718.000      -9.097446       13.12875    
   3723.000      -9.052805       13.10861    
   3728.000      -9.011539       13.08834    
   3733.000      -8.973884       13.06796    
   3738.000      -8.940146       13.04747    
   3743.000      -8.910709       13.02685    
   3748.000      -8.886071       13.00613    
   3753.000      -8.866872       12.98529    
   3758.000      -8.853959       12.96434    
   3763.000      -8.848475       12.94328    
   3768.000      -8.852003       12.92211    
   3773.000      -8.866819       12.90083    
   3778.000      -8.896353       12.87945    
   3783.000      -8.946100       12.85796    
   3788.000      -9.025723       12.83637    
   3793.000      -9.154616       12.81467    
   3798.000      -9.382032       12.79288    
   3800.000      -9.531170       12.78413    
   3803.000      -9.922900       12.77098    
   3808.000      -10.00279       14.61071    
   3813.000      -9.236075       14.58684    
   3818.000      -8.860742       14.56287    
   3823.000      -8.595389       14.53881    
   3828.000      -8.383232       14.51466    
   3833.000      -8.202754       14.49042    
   3838.000      -8.043417       14.46609    
   3843.000      -7.899295       14.44168    
   3848.000      -7.766687       14.41719    
   3853.000      -7.643157       14.39261    
   3858.000      -7.526981       14.36795    
   3863.000      -7.416927       14.34321    
   3868.000      -7.312051       14.31838    
   3873.000      -7.211643       14.29348    
   3878.000      -7.115129       14.26850    
   3883.000      -7.022062       14.24345    
   3888.000      -6.932063       14.21831    
   3893.000      -6.844834       14.19311    
   3898.000      -6.760111       14.16783    
   3900.000      -6.726874       14.15770    
   3903.000      -6.677681       14.14248    
   4000.000      -5.371768       13.63788    
   4100.000      -4.361378       13.09775    
   4200.000      -3.553505       12.54507    
   4300.000      -2.894283       11.98680    
   4400.000      -2.872167       11.48069    
   4500.000      -2.451506       11.05264    
   4600.000      -2.316755       10.64857    
   4700.000      -2.024699       10.30095    
   4800.000      -1.769656       9.971041    
   4900.000      -1.545684       9.657669    
   5000.000      -1.329474       9.357783    
   5100.000      -1.153123       9.070215    
   5200.000     -0.9967659       8.795758    
   5300.000     -0.8578421       8.533614    
   5400.000     -0.7342064       8.283051    
   5500.000     -0.6240410       8.043384    
   5600.000     -0.5257961       7.813982    
   5700.000     -0.4381405       7.594260    
   5800.000     -0.3599231       7.383672    
   5900.000     -0.2901453       7.181716    
   6000.000     -0.2279338       6.987918    
   6100.000     -0.1725232       6.801842    
   6200.000     -0.1232395       6.623075    
   6300.000     -7.9486877E-02   6.451238    
   6400.000     -4.0737800E-02   6.285972    
   6500.000     -6.5223956E-03   6.126943    
   6600.000      2.3578165E-02   5.973839    
   6700.000      4.9938381E-02   5.826365    
   6800.000      6.6604175E-02   5.684747    
   6900.000      8.5388586E-02   5.548237    
   7000.000      0.1024598       5.416595    
   7100.000      0.1116243       5.289765    
   7200.000      0.1237672       5.167490    
   7300.000      0.1337925       5.049409    
   7400.000      0.1418787       4.935331    
   7500.000      0.1481879       4.825073    
   7600.000      0.1528671       4.718465    
   7700.000      0.1496243       4.615753    
   7800.000      0.1513179       4.516438    
   7900.000      0.1517745       4.420321    
   8000.000      0.1510946       4.327267    
   8100.000      0.1493700       4.237143    
   8200.000      0.1466842       4.149827    
   8300.000      0.1431136       4.065201    
   8400.000      0.1387275       3.983157    
   8500.000      0.1335891       3.903587    
   8600.000      0.1277560       3.826393    
   8700.000      0.1212804       3.751480    
   8800.000      0.1142092       3.678757    
   8900.000      0.1065852       3.608140    
   9000.000      9.8794259E-02   3.539958    
   9100.000      9.0590253E-02   3.473727    
   9200.000      8.2008928E-02   3.409372    
   9300.000      7.3082976E-02   3.346821    
   9400.000      6.3842796E-02   3.286007    
   9500.000      5.4316059E-02   3.226865    
   9600.000      4.4528488E-02   3.169333    
   9700.000      3.4503806E-02   3.113353    
   9800.000      2.4263579E-02   3.058868    
   9900.000      1.3828062E-02   3.005825    
   10000.00      3.2155367E-03   2.954172    
   10100.00     -7.5568617E-03   2.903861    
   10200.00     -1.8473331E-02   2.854845    
   10300.00     -2.9519610E-02   2.807079    
   10400.00     -4.0682163E-02   2.760521    
   10500.00     -5.1948924E-02   2.715129    
   10600.00     -6.3308477E-02   2.670864    
   10700.00     -7.4750297E-02   2.627689    
   10800.00     -8.7151289E-02   2.585577    
   10900.00     -9.8756947E-02   2.544488    
   11000.00     -0.1104171       2.504386    
   11100.00     -0.1221244       2.465238    
   11200.00     -0.1338717       2.427016    
   11300.00     -0.1456500       2.389688    
   11400.00     -0.1581745       2.353235    
   11500.00     -0.1700217       2.317624    
   11600.00     -0.1818870       2.282827    
   11700.00     -0.1937658       2.248820    
   11800.00     -0.2056544       2.215577    
   11900.00     -0.2175492       2.183077    
   12000.00     -0.2294473       2.151296    
   12100.00     -0.2413457       2.120214    
   12200.00     -0.2532417       2.089810    
   12300.00     -0.2651335       2.060064    
   12400.00     -0.2770187       2.030957    
   12500.00     -0.2888960       2.002470    
   12600.00     -0.3007636       1.974586    
   12700.00     -0.3126202       1.947287    
   12800.00     -0.3244649       1.920558    
   12900.00     -0.3362967       1.894382    
   13000.00     -0.3481151       1.868744    
   13100.00     -0.3599193       1.843628    
   13200.00     -0.3717089       1.819022    
   13300.00     -0.3834839       1.794910    
   13400.00     -0.3952438       1.771280    
   13500.00     -0.4071444       1.748119    
   13600.00     -0.4188763       1.725415    
   13700.00     -0.4305940       1.703155    
   13800.00     -0.4422978       1.681328    
   13900.00     -0.4539879       1.659922    
   14000.00     -0.4656653       1.638927    
   14100.00     -0.4773305       1.618330    
   14200.00     -0.4889842       1.598124    
   14300.00     -0.5006274       1.578297    
   14400.00     -0.5122607       1.558841    
   14500.00     -0.5238816       1.539745    
   14600.00     -0.5370580       1.521026    
   14700.00     -0.5486698       1.502657    
   14800.00     -0.5602767       1.484622    
   14900.00     -0.5718796       1.466914    
   15000.00     -0.5834800       1.449523    
   15100.00     -0.5950793       1.432444    
   15200.00     -0.6066791       1.415668    
   15300.00     -0.6195925       1.399195    
   15400.00     -0.6311983       1.383029    
   15500.00     -0.6428094       1.367145    
   15600.00     -0.6544276       1.351536    
   15700.00     -0.6660548       1.336197    
   15800.00     -0.6776932       1.321119    
   15900.00     -0.6893448       1.306298    
   16000.00     -0.7010120       1.291728    
   16100.00     -0.7126970       1.277403    
   16200.00     -0.7244020       1.263317    
   16300.00     -0.7361295       1.249466    
   16400.00     -0.7478830       1.235843    
   16500.00     -0.7617107       1.222447    
   16600.00     -0.7735544       1.209304    
   16700.00     -0.7854052       1.196376    
   16800.00     -0.7972900       1.183657    
   16900.00     -0.8092126       1.171143    
   17000.00     -0.8211760       1.158828    
   17100.00     -0.8331833       1.146710    
   17200.00     -0.8452376       1.134784    
   17300.00     -0.8573420       1.123045    
   17400.00     -0.8695004       1.111490    
   17500.00     -0.8817161       1.100114    
   17600.00     -0.8939926       1.088915    
   17700.00     -0.9063337       1.077888    
   17800.00     -0.9187432       1.067030    
   17900.00     -0.9312254       1.056337    
   18000.00     -0.9437842       1.045806    
   18100.00     -0.9564240       1.035434    
   18200.00     -0.9691492       1.025217    
   18300.00     -0.9819642       1.015153    
   18400.00     -0.9948744       1.005238    
   18500.00      -1.007884      0.9954694    
   18600.00      -1.020999      0.9858440    
   18700.00      -1.034225      0.9763591    
   18800.00      -1.047566      0.9670123    
   18900.00      -1.061029      0.9578003    
   19000.00      -1.074621      0.9487209    
   19100.00      -1.088346      0.9397714    
   19200.00      -1.102213      0.9309493    
   19300.00      -1.116228      0.9222523    
   19400.00      -1.130398      0.9136778    
   19500.00      -1.144731      0.9052235    
   19600.00      -1.159235      0.8968874    
   19700.00      -1.173918      0.8886669    
   19800.00      -1.188789      0.8805603    
   19900.00      -1.203857      0.8725650    
   20000.00      -1.219133      0.8646793    
   20100.00      -1.234626      0.8569009    
   20200.00      -1.250348      0.8492281    
   20300.00      -1.266308      0.8416589    
   20400.00      -1.282521      0.8341914    
   20500.00      -1.298999      0.8268236    
   20600.00      -1.315755      0.8195539    
   20700.00      -1.332803      0.8123805    
   20800.00      -1.350159      0.8053018    
   20900.00      -1.367840      0.7983159    
   21000.00      -1.385862      0.7914213    
   21100.00      -1.404245      0.7846164    
   21200.00      -1.423008      0.7778995    
   21300.00      -1.442171      0.7712693    
   21400.00      -1.461760      0.7647241    
   21500.00      -1.481797      0.7582625    
   21600.00      -1.502309      0.7518831    
   21700.00      -1.523324      0.7455844    
   21800.00      -1.544873      0.7393653    
   21900.00      -1.566991      0.7332241    
   22000.00      -1.589712      0.7271596    
   22100.00      -1.613076      0.7211705    
   22200.00      -1.637125      0.7152557    
   22300.00      -1.661907      0.7094139    
   22400.00      -1.687474      0.7036437    
   22500.00      -1.713882      0.6979442    
   22600.00      -1.741192      0.6923140    
   22700.00      -1.769475      0.6867520    
   22800.00      -1.798806      0.6812574    
   22900.00      -1.829271      0.6758286    
   23000.00      -1.860967      0.6704649    
   23100.00      -1.894000      0.6651652    
   23200.00      -1.928492      0.6599283    
   23300.00      -1.964579      0.6547536    
   23400.00      -2.002421      0.6496396    
   23500.00      -2.042198      0.6445856    
   23600.00      -2.084117      0.6395907    
   23700.00      -2.128423      0.6346539    
   23800.00      -2.175399      0.6297743    
   23900.00      -2.225384      0.6249510    
   24000.00      -2.278780      0.6201832    
   24100.00      -2.336075      0.6154699    
   24200.00      -2.397865      0.6108103    
   24300.00      -2.464890      0.6062038    
   24400.00      -2.538087      0.6016493    
   24500.00      -2.618656      0.5971462    
   24600.00      -2.708182      0.5926935    
   24700.00      -2.808808      0.5882907    
   24800.00      -2.923530      0.5839370    
   24900.00      -3.056729      0.5796315    
