  Element 79: Au      Atomic mass:  196.9665

  Edge          keV         A
    K        80.7249    0.1536
    L-I      14.3528    0.8638
    L-II     13.7336    0.9028
    L-III    11.9187    1.0402
    M1        3.4249    3.6201
    M2        3.1478    3.9388
    M3        2.7430    4.5200
    M4        2.2911    5.4116
    M5        2.2057    5.6211

Scattering factors as a function of energy: 

   1000.000      -27.07822       20.80327    
   1100.000      -25.91527       19.21436    
   1200.000      -25.13757       17.73887    
   1300.000      -24.69306       16.37703    
   1400.000      -24.74085       15.15569    
   1500.000      -25.05004       14.09253    
   1600.000      -25.63365       13.14674    
   1700.000      -26.45094       12.31265    
   1800.000      -27.47042       11.56011    
   1900.000      -28.99584       10.87565    
   2000.000      -31.46797       10.25067    
   2100.000      -36.83363       9.678119    
   2108.000      -37.61783       9.634389    
   2113.000      -38.16402       9.607208    
   2118.000      -38.76136       9.580140    
   2123.000      -39.41806       9.553185    
   2128.000      -40.14430       9.526342    
   2133.000      -40.95257       9.499613    
   2138.000      -41.85863       9.472992    
   2143.000      -42.88232       9.446484    
   2148.000      -44.04939       9.420084    
   2153.000      -45.39336       9.393792    
   2158.000      -46.95908       9.367611    
   2163.000      -48.80819       9.341537    
   2168.000      -51.02725       9.315570    
   2173.000      -53.74336       9.289709    
   2178.000      -57.15088       9.263955    
   2183.000      -61.59850       9.238359    
   2188.000      -67.59164       9.213009    
   2193.000      -76.31832       9.187761    
   2194.000      -78.58818       9.182725    
   2198.000      -90.75871       9.162620    
   2199.000      -94.99379       9.157603    
   2200.000      -100.0144       9.152591    
   2203.000      -124.2656       9.137579    
   2204.000      -139.8654       9.132584    
   2208.000      -125.9958       120.0295    
   2209.000      -111.0505       117.6245    
   2213.000      -77.75392       108.5859    
   2214.000      -72.42262       106.4635    
   2218.000      -56.57197       98.47851    
   2219.000      -53.56043       96.60150    
   2223.000      -43.96979       89.53574    
   2224.000      -42.05460       87.87383    
   2228.000      -35.80547       81.61124    
   2229.000      -34.53734       80.13669    
   2233.000      -30.38788       74.57702    
   2234.000      -29.54971       73.26721    
   2238.000      -26.84953       68.32361    
   2239.000      -26.31914       67.15773    
   2243.000      -24.69048       62.75495    
   2244.000      -24.39525       61.71603    
   2248.000      -23.60992       57.78869    
   2249.000      -23.50596       56.86100    
   2253.000      -23.43180       53.35231    
   2254.000      -23.49572       52.52305    
   2258.000      -24.07394       49.38348    
   2259.000      -24.29970       48.64071    
   2263.000      -25.54243       45.82711    
   2264.000      -25.94294       45.16111    
   2268.000      -27.95247       42.63579    
   2269.000      -28.56888       42.03742    
   2273.000      -31.59901       39.76741    
   2274.000      -32.52489       39.22926    
   2278.000      -37.16002       37.18556    
   2279.000      -38.62050       36.70073    
   2283.000      -46.42973       34.85826    
   2284.000      -49.12089       34.42081    
   2288.000      -67.00813       32.75712    
   2289.000      -75.79674       32.36184    
   2293.000      -76.78823       106.2556    
   2294.000      -65.12413       104.3139    
   2298.000      -40.77425       96.98614    
   2299.000      -36.99488       95.25887    
   2300.000      -33.69753       93.57124    
   2303.000      -25.86468       88.73581    
   2304.000      -23.76339       87.19688    
   2309.000      -15.74695       80.00703    
   2314.000      -10.48568       73.58559    
   2319.000      -6.931581       67.84105    
   2324.000      -4.520303       62.69467    
   2329.000      -2.914917       58.07675    
   2334.000      -1.894946       53.92702    
   2339.000      -1.308761       50.19266    
   2344.000      -1.048129       46.82683    
   2349.000      -1.033799       43.78904    
   2354.000      -1.206490       41.04312    
   2359.000      -1.521185       38.55774    
   2364.000      -1.943355       36.30481    
   2369.000      -2.446194       34.25995    
   2374.000      -3.008883       32.40123    
   2379.000      -3.615031       30.70959    
   2384.000      -4.251866       29.16781    
   2389.000      -4.909246       27.76090    
   2400.000      -6.391380       25.07603    
   2500.000      -18.21261       14.13769    
   2600.000      -27.30669       11.62484    
   2646.000      -31.62683       11.39371    
   2651.000      -32.13177       11.39452    
   2656.000      -32.64653       11.40041    
   2661.000      -33.17214       11.41143    
   2666.000      -33.70965       11.42766    
   2671.000      -34.26033       11.44917    
   2676.000      -34.82553       11.47608    
   2681.000      -35.40686       11.50852    
   2686.000      -36.00624       11.54662    
   2691.000      -36.62592       11.59056    
   2696.000      -37.26876       11.64053    
   2700.000      -37.80206       11.68497    
   2701.000      -37.93830       11.69672    
   2706.000      -38.63936       11.75937    
   2711.000      -39.37842       11.82874    
   2716.000      -40.16518       11.90511    
   2721.000      -41.01473       11.98877    
   2726.000      -41.95362       12.08008    
   2731.000      -43.03569       12.17939    
   2736.000      -44.40408       12.28711    
   2741.000      -46.80254       12.40365    
   2746.000      -46.86337       17.00172    
   2751.000      -46.12131       17.13327    
   2756.000      -46.10545       17.27520    
   2761.000      -46.33907       17.42808    
   2766.000      -46.70955       17.59257    
   2771.000      -47.17257       17.76936    
   2776.000      -47.70662       17.95920    
   2781.000      -48.29990       18.16290    
   2786.000      -48.94567       18.38133    
   2791.000      -49.63990       18.61545    
   2796.000      -50.38039       18.86628    
   2800.000      -51.00528       19.07970    
   2801.000      -51.16602       19.13492    
   2806.000      -51.99641       19.42256    
   2811.000      -52.87196       19.73050    
   2816.000      -53.79332       20.06013    
   2821.000      -54.76171       20.41298    
   2826.000      -55.77852       20.79066    
   2831.000      -56.84559       21.19496    
   2836.000      -57.96484       21.62778    
   2841.000      -59.13866       22.09121    
   2900.000      -31.67877       25.59159    
   3000.000      -15.08325       28.41292    
   3050.000      -14.54240       27.73873    
   3055.000      -14.49980       27.67260    
   3060.000      -14.45970       27.60671    
   3065.000      -14.42225       27.54104    
   3070.000      -14.38766       27.47561    
   3075.000      -14.35619       27.41039    
   3080.000      -14.32813       27.34541    
   3085.000      -14.30391       27.28065    
   3090.000      -14.28417       27.21611    
   3095.000      -14.26912       27.15180    
   3100.000      -14.25978       27.08771    
   3105.000      -14.25723       27.02384    
   3110.000      -14.26297       26.96019    
   3115.000      -14.27913       26.89675    
   3120.000      -14.30893       26.83354    
   3125.000      -14.35751       26.77054    
   3130.000      -14.43391       26.70776    
   3135.000      -14.55625       26.64519    
   3140.000      -14.77056       26.58283    
   3145.000      -15.27769       26.52069    
   3150.000      -15.35389       28.19918    
   3155.000      -14.63746       28.13298    
   3160.000      -14.28797       28.06704    
   3165.000      -14.04187       28.00136    
   3170.000      -13.84591       27.93595    
   3175.000      -13.67992       27.87080    
   3180.000      -13.53399       27.80591    
   3185.000      -13.40257       27.74128    
   3190.000      -13.28219       27.67691    
   3195.000      -13.17055       27.61279    
   3200.000      -13.06605       27.54893    
   3205.000      -12.96752       27.48532    
   3210.000      -12.87410       27.42196    
   3215.000      -12.78511       27.35886    
   3220.000      -12.70002       27.29600    
   3225.000      -12.61843       27.23339    
   3230.000      -12.53998       27.17103    
   3235.000      -12.46441       27.10891    
   3240.000      -12.39148       27.04703    
   3245.000      -12.32100       26.98540    
   3300.000      -11.67530       26.32303    
   3327.000      -11.43289       26.00801    
   3332.000      -11.39340       25.95038    
   3337.000      -11.35573       25.89298    
   3342.000      -11.31997       25.83578    
   3347.000      -11.28624       25.77881    
   3352.000      -11.25467       25.72206    
   3357.000      -11.22545       25.66551    
   3362.000      -11.19880       25.60919    
   3367.000      -11.17502       25.55307    
   3372.000      -11.15447       25.49717    
   3377.000      -11.13766       25.44147    
   3382.000      -11.12524       25.38599    
   3387.000      -11.11814       25.33071    
   3392.000      -11.11768       25.27565    
   3397.000      -11.12584       25.22078    
   3400.000      -11.13612       25.18796    
   3402.000      -11.14579       25.16612    
   3407.000      -11.18312       25.11167    
   3412.000      -11.24896       25.05742    
   3417.000      -11.37141       25.00337    
   3422.000      -11.67085       24.94953    
   3427.000      -11.73704       25.98210    
   3432.000      -11.27050       25.92826    
   3437.000      -11.04144       25.87461    
   3442.000      -10.87767       25.82117    
   3447.000      -10.74530       25.76791    
   3452.000      -10.63161       25.71486    
   3457.000      -10.53036       25.66199    
   3462.000      -10.43808       25.60932    
   3467.000      -10.35258       25.55684    
   3472.000      -10.27245       25.50455    
   3477.000      -10.19667       25.45245    
   3482.000      -10.12452       25.40054    
   3487.000      -10.05545       25.34882    
   3492.000      -9.989044       25.29728    
   3497.000      -9.924968       25.24593    
   3500.000      -9.887527       25.21521    
   3502.000      -9.862953       25.19477    
   3507.000      -9.802789       25.14379    
   3512.000      -9.744290       25.09299    
   3517.000      -9.687315       25.04238    
   3522.000      -9.631728       24.99195    
   3600.000      -8.915776       24.23063    
   3700.000      -8.175716       23.31945    
   3800.000      -7.576807       22.47166    
   3900.000      -7.073825       21.68222    
   4000.000      -6.644850       20.94669    
   4100.000      -6.109601       20.25802    
   4200.000      -5.765321       19.57426    
   4300.000      -5.465297       18.92597    
   4400.000      -5.203196       18.31063    
   4500.000      -4.965724       17.72509    
   4600.000      -4.763928       17.16797    
   4700.000      -4.588286       16.63744    
   4800.000      -4.434841       16.13186    
   4900.000      -4.301061       15.64964    
   5000.000      -4.184772       15.18931    
   5100.000      -4.084100       14.74951    
   5200.000      -3.997418       14.32901    
   5300.000      -3.923309       13.92665    
   5400.000      -3.860533       13.54136    
   5500.000      -3.816882       13.17229    
   5600.000      -3.773880       12.81919    
   5700.000      -3.739245       12.48043    
   5800.000      -3.712228       12.15524    
   5900.000      -3.692166       11.84287    
   6000.000      -3.678469       11.54263    
   6100.000      -3.670614       11.25389    
   6200.000      -3.668134       10.97605    
   6300.000      -3.701640       10.70872    
   6400.000      -3.708928       10.45263    
   6500.000      -3.720373       10.20588    
   6600.000      -3.735696       9.968007    
   6700.000      -3.770613       9.738911    
   6800.000      -3.792768       9.517877    
   6900.000      -3.823725       9.304714    
   7000.000      -3.852163       9.099072    
   7100.000      -3.883394       8.900387    
   7200.000      -3.917280       8.708342    
   7300.000      -3.953701       8.522634    
   7400.000      -3.992553       8.342979    
   7500.000      -4.033749       8.169111    
   7600.000      -4.077218       8.000775    
   7700.000      -4.122903       7.837733    
   7800.000      -4.170760       7.679758    
   7900.000      -4.220760       7.526638    
   8000.000      -4.272887       7.378169    
   8100.000      -4.327139       7.234158    
   8200.000      -4.383526       7.094427    
   8300.000      -4.442077       6.958800    
   8400.000      -4.502834       6.827116    
   8500.000      -4.565861       6.699216    
   8600.000      -4.631240       6.574955    
   8700.000      -4.699082       6.454193    
   8800.000      -4.769537       6.336795    
   8900.000      -4.842803       6.222635    
   9000.000      -4.915856       6.113418    
   9100.000      -4.991393       6.007193    
   9200.000      -5.069550       5.903849    
   9300.000      -5.150491       5.803278    
   9400.000      -5.234396       5.705381    
   9500.000      -5.321476       5.610058    
   9600.000      -5.412241       5.517221    
   9700.000      -5.506457       5.426785    
   9800.000      -5.604688       5.338660    
   9900.000      -5.707293       5.252766    
   10000.00      -5.815503       5.169042    
   10100.00      -5.928267       5.087407    
   10200.00      -6.046915       5.007784    
   10300.00      -6.172523       4.930107    
   10400.00      -6.305164       4.854312    
   10500.00      -6.446197       4.780334    
   10600.00      -6.596838       4.708113    
   10700.00      -6.758589       4.637592    
   10800.00      -6.933346       4.568717    
   10900.00      -7.123532       4.501434    
   11000.00      -7.332331       4.435693    
   11100.00      -7.564032       4.371446    
   11200.00      -7.824615       4.308647    
   11300.00      -8.122789       4.247250    
   11400.00      -8.471923       4.187213    
   11500.00      -8.894150       4.128495    
   11600.00      -9.430144       4.071055    
   11700.00      -10.16804       4.014857    
   11800.00      -11.36662       3.959862    
   11821.00      -11.74948       3.948463    
   11826.00      -11.85289       3.945757    
   11831.00      -11.96209       3.943053    
   11836.00      -12.07775       3.940352    
   11841.00      -12.20067       3.937655    
   11846.00      -12.33186       3.934960    
   11851.00      -12.47249       3.932268    
   11856.00      -12.62401       3.929579    
   11861.00      -12.78823       3.926892    
   11866.00      -12.96747       3.924209    
   11871.00      -13.16475       3.921528    
   11876.00      -13.38406       3.918850    
   11881.00      -13.63088       3.916176    
   11886.00      -13.91302       3.913504    
   11891.00      -14.24597       3.910838    
   11896.00      -14.64176       3.908176    
   11900.00      -15.02753       3.906048    
   11901.00      -15.13703       3.905516    
   11906.00      -15.79870       3.902860    
   11911.00      -16.79755       3.900206    
   11916.00      -18.89326       3.897555    
   11921.00      -19.23041       10.20640    
   11926.00      -16.90240       10.19890    
   11931.00      -15.84858       10.19140    
   11936.00      -15.15847       10.18391    
   11941.00      -14.64414       10.17644    
   11946.00      -14.23385       10.16897    
   11951.00      -13.89244       10.16151    
   11956.00      -13.60003       10.15406    
   11961.00      -13.34428       10.14661    
   11966.00      -13.11706       10.13918    
   11971.00      -12.91255       10.13176    
   11976.00      -12.72667       10.12434    
   11981.00      -12.55630       10.11693    
   11986.00      -12.39905       10.10953    
   11991.00      -12.25306       10.10214    
   11996.00      -12.11682       10.09476    
   12000.00      -12.01405       10.08886    
   12001.00      -11.98913       10.08739    
   12006.00      -11.86900       10.08003    
   12011.00      -11.75556       10.07267    
   12016.00      -11.64812       10.06532    
   12100.00      -10.38638       9.943176    
   12200.00      -9.510640       9.800853    
   12300.00      -8.923661       9.661776    
   12400.00      -8.494524       9.525846    
   12500.00      -8.167669       9.392964    
   12600.00      -7.914292       9.263039    
   12700.00      -7.718458       9.135981    
   12800.00      -7.570514       9.011702    
   12900.00      -7.465052       8.890120    
   13000.00      -7.399708       8.771154    
   13100.00      -7.374893       8.654730    
   13200.00      -7.394250       8.540772    
   13300.00      -7.466243       8.429209    
   13400.00      -7.608326       8.319973    
   13500.00      -7.859131       8.212996    
   13600.00      -8.326885       8.108215    
   13636.00      -8.611965       8.071020    
   13641.00      -8.665450       8.065876    
   13646.00      -8.716831       8.060742    
   13651.00      -8.771888       8.055613    
   13656.00      -8.830681       8.050489    
   13661.00      -8.893700       8.045370    
   13666.00      -8.961541       8.040257    
   13671.00      -9.034929       8.035151    
   13676.00      -9.114813       8.030047    
   13681.00      -9.202353       8.024950    
   13686.00      -9.299077       8.019857    
   13691.00      -9.407021       8.014770    
   13696.00      -9.528986       8.009688    
   13700.00      -9.639279       8.005627    
   13701.00      -9.668983       8.004611    
   13706.00      -9.833030       7.999540    
   13711.00      -10.03079       7.994473    
   13716.00      -10.27919       7.989413    
   13721.00      -10.61262       7.984357    
   13726.00      -11.11915       7.979306    
   13731.00      -12.19860       7.974260    
   13736.00      -12.28514       11.15249    
   13741.00      -11.13843       11.14556    
   13746.00      -10.61043       11.13864    
   13751.00      -10.26260       11.13172    
   13756.00      -10.00240       11.12481    
   13761.00      -9.794156       11.11791    
   13766.00      -9.620405       11.11102    
   13771.00      -9.471237       11.10413    
   13776.00      -9.340488       11.09725    
   13781.00      -9.224065       11.09037    
   13786.00      -9.119105       11.08350    
   13791.00      -9.023535       11.07664    
   13796.00      -8.935813       11.06979    
   13800.00      -8.870440       11.06431    
   13801.00      -8.854712       11.06294    
   13806.00      -8.779310       11.05610    
   13811.00      -8.708858       11.04927    
   13816.00      -8.642746       11.04245    
   13821.00      -8.580474       11.03563    
   13826.00      -8.521622       11.02882    
   13831.00      -8.465840       11.02201    
   13900.00      -7.900060       10.92880    
   14000.00      -7.423972       10.79600    
   14100.00      -7.155392       10.66582    
   14200.00      -7.061238       10.53821    
   14255.00      -7.121655       10.46909    
   14260.00      -7.133913       10.46284    
   14265.00      -7.147779       10.45660    
   14270.00      -7.163423       10.45036    
   14275.00      -7.181046       10.44414    
   14280.00      -7.200903       10.43791    
   14285.00      -7.223294       10.43170    
   14290.00      -7.248589       10.42549    
   14295.00      -7.277253       10.41928    
   14300.00      -7.309878       10.41309    
   14305.00      -7.347233       10.40689    
   14310.00      -7.390345       10.40071    
   14315.00      -7.440612       10.39453    
   14320.00      -7.500068       10.38836    
   14325.00      -7.571722       10.38219    
