  Element 83: Bi      Atomic mass:  208.9804

  Edge          keV         A
    K        90.5259    0.1370
    L-I      16.3875    0.7566
    L-II     15.7111    0.7892
    L-III    13.4186    0.9240
    M1        3.9991    3.1003
    M2        3.6963    3.3543
    M3        3.1769    3.9027
    M4        2.6876    4.6132
    M5        2.5796    4.8063

Scattering factors as a function of energy: 

   1000.000      -28.92583       25.93918    
   1100.000      -27.05946       24.07631    
   1200.000      -25.71317       22.36768    
   1300.000      -24.72937       20.80092    
   1400.000      -24.04227       19.36260    
   1500.000      -23.59857       18.04181    
   1600.000      -23.39385       16.82844    
   1700.000      -23.36866       15.71882    
   1800.000      -23.80129       14.71514    
   1900.000      -24.37946       13.83174    
   2000.000      -24.97093       13.03881    
   2100.000      -25.81681       12.31184    
   2200.000      -27.01257       11.64354    
   2300.000      -28.78029       11.02754    
   2400.000      -31.78280       10.45846    
   2482.000      -37.32551       10.02349    
   2487.000      -37.91362       9.997828    
   2492.000      -38.55724       9.972266    
   2497.000      -39.26511       9.946800    
   2500.000      -39.72506       9.931566    
   2502.000      -40.04801       9.921430    
   2507.000      -40.91908       9.896153    
   2512.000      -41.89485       9.870972    
   2517.000      -42.99603       9.845884    
   2522.000      -44.24933       9.820889    
   2527.000      -45.68933       9.795988    
   2532.000      -47.36234       9.771178    
   2537.000      -49.33110       9.746462    
   2542.000      -51.68410       9.721835    
   2547.000      -54.54979       9.697301    
   2552.000      -58.12495       9.672856    
   2557.000      -62.72915       9.648502    
   2562.000      -68.93244       9.624238    
   2567.000      -77.89632       9.600063    
   2572.000      -92.62760       9.575976    
   2577.000      -126.8357       9.551979    
   2582.000      -126.7107       119.1968    
   2587.000      -80.14914       108.4065    
   2590.000      -66.22384       102.5436    
   2592.000      -59.24579       98.86700    
   2595.000      -51.00135       93.67616    
   2597.000      -46.58921       90.41843    
   2600.000      -41.17049       85.81415    
   2602.000      -38.19278       82.92155    
   2605.000      -34.47851       78.83013    
   2607.000      -32.41822       76.25740    
   2610.000      -29.84108       72.61546    
   2612.000      -28.41472       70.32314    
   2615.000      -26.64544       67.07504    
   2617.000      -25.68106       65.02898    
   2620.000      -24.51357       62.12752    
   2622.000      -23.90031       60.29808    
   2625.000      -23.19901       57.70139    
   2627.000      -22.86326       56.06286    
   2630.000      -22.53792       53.73518    
   2632.000      -22.43078       52.26534    
   2635.000      -22.42238       50.17531    
   2637.000      -22.51291       48.85428    
   2640.000      -22.78637       46.97458    
   2642.000      -23.05819       45.78566    
   2645.000      -23.59908       44.09238    
   2647.000      -24.04942       43.02040    
   2650.000      -24.86417       41.49265    
   2652.000      -25.50493       40.52482    
   2655.000      -26.62495       39.14429    
   2657.000      -27.48776       38.26895    
   2660.000      -28.98025       37.01957    
   2662.000      -30.12662       36.22688    
   2665.000      -32.11892       35.09451    
   2667.000      -33.66574       34.37546    
   2670.000      -36.40414       33.34767    
   2672.000      -38.58606       32.69464    
   2675.000      -42.60208       31.76046    
   2677.000      -45.97598       31.16644    
   2680.000      -52.72606       30.31620    
   2685.000      -76.00516       29.00039    
   2690.000      -76.31756       101.8997    
   2695.000      -44.87302       93.17661    
   2700.000      -30.92046       85.49509    
   2705.000      -22.58417       78.71609    
   2710.000      -17.13106       72.71970    
   2715.000      -13.42455       67.40462    
   2720.000      -10.90323       62.68322    
   2725.000      -9.159291       58.48094    
   2730.000      -7.994401       54.73296    
   2735.000      -7.255057       51.38413    
   2740.000      -6.832887       48.38621    
   2745.000      -6.649452       45.69801    
   2750.000      -6.646670       43.28334    
   2755.000      -6.780914       41.11108    
   2760.000      -7.018969       39.15418    
   2765.000      -7.335357       37.38876    
   2770.000      -7.710317       35.79431    
   2775.000      -8.128533       34.35260    
   2780.000      -8.577975       33.04793    
   2785.000      -9.049289       31.86628    
   2800.000      -10.52817       28.94507    
   2900.000      -18.99498       22.53312    
   3000.000      -22.16339       30.09947    
   3079.000      -21.17698       28.87595    
   3084.000      -21.14991       28.80081    
   3089.000      -21.12849       28.72599    
   3094.000      -21.11322       28.65147    
   3099.000      -21.10467       28.57726    
   3100.000      -21.10383       28.56245    
   3104.000      -21.10354       28.50335    
   3109.000      -21.11067       28.42974    
   3114.000      -21.12713       28.35644    
   3119.000      -21.15426       28.28344    
   3124.000      -21.19375       28.21074    
   3129.000      -21.24782       28.13833    
   3134.000      -21.31946       28.06622    
   3139.000      -21.41276       27.99440    
   3144.000      -21.53358       27.92287    
   3149.000      -21.69071       27.85163    
   3154.000      -21.89824       27.78069    
   3159.000      -22.18081       27.71002    
   3164.000      -22.58774       27.63965    
   3169.000      -23.24338       27.56956    
   3174.000      -24.68061       27.49974    
   3179.000      -25.08587       32.24150    
   3184.000      -23.12040       32.15486    
   3189.000      -22.21132       32.06871    
   3194.000      -21.59298       31.98305    
   3199.000      -21.11456       31.89788    
   3200.000      -21.02996       31.88090    
   3204.000      -20.71910       31.81318    
   3209.000      -20.37888       31.72897    
   3214.000      -20.07829       31.64523    
   3219.000      -19.80759       31.56195    
   3224.000      -19.56201       31.47915    
   3229.000      -19.33378       31.39682    
   3234.000      -19.12126       31.31494    
   3239.000      -18.92198       31.23352    
   3244.000      -18.73407       31.15255    
   3249.000      -18.55602       31.07202    
   3254.000      -18.38666       30.99194    
   3259.000      -18.22501       30.91230    
   3264.000      -18.07027       30.83310    
   3269.000      -17.92177       30.75434    
   3274.000      -17.77894       30.67600    
   3300.000      -17.11140       30.27547    
   3400.000      -15.23612       28.83094    
   3500.000      -14.01511       27.52209    
   3599.000      -13.32598       26.33867    
   3600.000      -13.32209       26.32727    
   3604.000      -13.30738       26.28179    
   3609.000      -13.29098       26.22518    
   3614.000      -13.27695       26.16884    
   3619.000      -13.26553       26.11276    
   3624.000      -13.25697       26.05694    
   3629.000      -13.25162       26.00139    
   3634.000      -13.24988       25.94609    
   3639.000      -13.25226       25.89106    
   3644.000      -13.25943       25.83628    
   3649.000      -13.27226       25.78175    
   3654.000      -13.29189       25.72748    
   3659.000      -13.31993       25.67347    
   3664.000      -13.35869       25.61970    
   3669.000      -13.41164       25.56618    
   3674.000      -13.48439       25.51291    
   3679.000      -13.58690       25.45990    
   3684.000      -13.73952       25.40712    
   3689.000      -13.99560       25.35459    
   3694.000      -14.61407       25.30231    
   3699.000      -14.48241       27.05256    
   3700.000      -14.29215       27.04060    
   3704.000      -13.83592       26.99292    
   3709.000      -13.50674       26.93362    
   3714.000      -13.27602       26.87467    
   3719.000      -13.09442       26.81606    
   3724.000      -12.94254       26.75779    
   3729.000      -12.81071       26.69986    
   3734.000      -12.69342       26.64226    
   3739.000      -12.58720       26.58500    
   3744.000      -12.48976       26.52806    
   3749.000      -12.39945       26.47146    
   3754.000      -12.31684       26.41518    
   3759.000      -12.23758       26.35923    
   3764.000      -12.16271       26.30360    
   3769.000      -12.09168       26.24828    
   3774.000      -12.02407       26.19329    
   3779.000      -11.95952       26.13861    
   3784.000      -11.89775       26.08424    
   3789.000      -11.83850       26.03017    
   3794.000      -11.78159       25.97643    
   3800.000      -11.71614       25.91233    
   3900.000      -10.95651       24.90584    
   3902.000      -10.94694       24.88685    
   3907.000      -10.92408       24.83956    
   3912.000      -10.90280       24.79253    
   3917.000      -10.88321       24.74577    
   3922.000      -10.86541       24.69927    
   3927.000      -10.84957       24.65303    
   3932.000      -10.83585       24.60706    
   3937.000      -10.82450       24.56133    
   3942.000      -10.81582       24.51587    
   3947.000      -10.81017       24.47066    
   3952.000      -10.80807       24.42571    
   3957.000      -10.81019       24.38101    
   3962.000      -10.81747       24.33657    
   3967.000      -10.83127       24.29237    
   3972.000      -10.85365       24.24842    
   3977.000      -10.88794       24.20472    
   3982.000      -10.94009       24.16126    
   3987.000      -11.02232       24.11805    
   3992.000      -11.16717       24.07508    
   3997.000      -11.54031       24.03236    
   4000.000      -11.80429       25.05439    
   4002.000      -11.40149       25.03739    
   4007.000      -11.03591       24.99505    
   4012.000      -10.84137       24.95294    
   4017.000      -10.70147       24.91107    
   4022.000      -10.58901       24.86943    
   4027.000      -10.49315       24.82803    
   4032.000      -10.40850       24.78685    
   4037.000      -10.33197       24.74590    
   4042.000      -10.26160       24.70519    
   4047.000      -10.19608       24.66471    
   4052.000      -10.13452       24.62444    
   4057.000      -10.07623       24.58441    
   4062.000      -10.02073       24.54461    
   4067.000      -9.967616       24.50502    
   4072.000      -9.916585       24.46566    
   4077.000      -9.867393       24.42652    
   4082.000      -9.819842       24.38760    
   4087.000      -9.773757       24.34890    
   4092.000      -9.729003       24.31042    
   4097.000      -9.685462       24.27215    
   4100.000      -9.659879       24.24930    
   4200.000      -8.454723       23.44649    
   4300.000      -7.871591       22.66938    
   4400.000      -7.394400       21.94609    
   4500.000      -6.992716       21.27279    
   4600.000      -6.648894       20.64635    
   4700.000      -6.350883       20.06429    
   4800.000      -6.089580       19.52464    
   4900.000      -5.495907       18.95515    
   5000.000      -5.254785       18.40763    
   5100.000      -5.041008       17.88397    
   5200.000      -4.850085       17.38216    
   5300.000      -4.682981       16.90322    
   5400.000      -4.528401       16.44434    
   5500.000      -4.397033       16.00401    
   5600.000      -4.280892       15.58166    
   5700.000      -4.178467       15.17627    
   5800.000      -4.088429       14.78693    
   5900.000      -4.009617       14.41275    
   6000.000      -3.941001       14.05295    
   6100.000      -3.881670       13.70676    
   6200.000      -3.830813       13.37349    
   6300.000      -3.787709       13.05247    
   6400.000      -3.765460       12.74365    
   6500.000      -3.736136       12.44655    
   6600.000      -3.712898       12.16000    
   6700.000      -3.695128       11.88349    
   6800.000      -3.682408       11.61654    
   6900.000      -3.674364       11.35871    
   7000.000      -3.670657       11.10956    
   7100.000      -3.670982       10.86870    
   7200.000      -3.675064       10.63575    
   7300.000      -3.682655       10.41036    
   7400.000      -3.706085       10.19226    
   7500.000      -3.720348       9.981960    
   7600.000      -3.737453       9.778292    
   7700.000      -3.757238       9.580973    
   7800.000      -3.779556       9.389733    
   7900.000      -3.804275       9.204321    
   8000.000      -3.834429       9.024497    
   8100.000      -3.863691       8.850245    
   8200.000      -3.895027       8.681140    
   8300.000      -3.942483       8.517069    
   8400.000      -3.977570       8.357896    
   8500.000      -4.014524       8.203268    
   8600.000      -4.053295       8.053011    
   8700.000      -4.093827       7.906957    
   8800.000      -4.149415       7.765162    
   8900.000      -4.193278       7.627263    
   9000.000      -4.238110       7.494664    
   9100.000      -4.284457       7.365685    
   9200.000      -4.332314       7.240191    
   9300.000      -4.381684       7.118052    
   9400.000      -4.432575       6.999147    
   9500.000      -4.485006       6.883357    
   9600.000      -4.538999       6.770571    
   9700.000      -4.594587       6.660684    
   9800.000      -4.651809       6.553591    
   9900.000      -4.710712       6.449197    
   10000.00      -4.771356       6.347407    
   10100.00      -4.833804       6.248134    
   10200.00      -4.898134       6.151293    
   10300.00      -4.964432       6.056800    
   10400.00      -5.032799       5.964580    
   10500.00      -5.103347       5.874555    
   10600.00      -5.176204       5.786655    
   10700.00      -5.251514       5.700813    
   10800.00      -5.329442       5.616961    
   10900.00      -5.410171       5.535036    
   11000.00      -5.493913       5.454977    
   11100.00      -5.581299       5.376727    
   11200.00      -5.672440       5.300236    
   11300.00      -5.766808       5.225456    
   11400.00      -5.865374       5.152324    
   11500.00      -5.968550       5.080789    
   11600.00      -6.076820       5.010804    
   11700.00      -6.192361       4.942346    
   11800.00      -6.312651       4.875366    
   11900.00      -6.440074       4.809805    
   12000.00      -6.575602       4.745619    
   12100.00      -6.720999       4.682771    
   12200.00      -6.876561       4.621224    
   12300.00      -7.044715       4.560938    
   12400.00      -7.227821       4.501878    
   12500.00      -7.428988       4.444010    
   12600.00      -7.652406       4.387300    
   12700.00      -7.903921       4.331719    
   12800.00      -8.193146       4.277239    
   12900.00      -8.531008       4.223834    
   13000.00      -8.940278       4.171465    
   13100.00      -9.460824       4.120108    
   13200.00      -10.17902       4.069735    
   13300.00      -11.34844       4.020319    
   13321.00      -11.72250       4.010061    
   13326.00      -11.82356       4.007624    
   13331.00      -11.93030       4.005190    
   13336.00      -12.04337       4.002759    
   13341.00      -12.16355       4.000329    
   13346.00      -12.29184       3.997902    
   13351.00      -12.42938       3.995477    
   13356.00      -12.57759       3.993055    
   13361.00      -12.73826       3.990635    
   13366.00      -12.91366       3.988217    
   13371.00      -13.10675       3.985801    
   13376.00      -13.32146       3.983388    
   13381.00      -13.56318       3.980977    
   13386.00      -13.83976       3.978568    
   13391.00      -14.16280       3.976162    
   13396.00      -14.55101       3.973758    
   13400.00      -14.92970       3.971836    
   13401.00      -15.03726       3.971356    
   13406.00      -15.68798       3.968956    
   13411.00      -16.67375       3.966558    
   13416.00      -18.76895       3.964163    
   13421.00      -18.94117       10.12504    
   13426.00      -16.72545       10.11864    
   13431.00      -15.70765       10.11224    
   13436.00      -15.03865       10.10585    
   13441.00      -14.53917       10.09947    
   13446.00      -14.14030       10.09309    
   13451.00      -13.80813       10.08672    
   13456.00      -13.52348       10.08035    
   13461.00      -13.27440       10.07399    
   13466.00      -13.05300       10.06764    
   13471.00      -12.85367       10.06129    
   13476.00      -12.67242       10.05495    
   13481.00      -12.50623       10.04861    
   13486.00      -12.35281       10.04228    
   13491.00      -12.21031       10.03596    
   13496.00      -12.07730       10.02964    
   13500.00      -11.97692       10.02459    
   13501.00      -11.95258       10.02333    
   13506.00      -11.83522       10.01702    
   13511.00      -11.72434       10.01072    
   13516.00      -11.61930       10.00443    
   13600.00      -10.38104       9.899554    
   13700.00      -9.514619       9.776828    
   13800.00      -8.930387       9.656383    
   13900.00      -8.492198       9.538198    
   14000.00      -8.149929       9.422153    
   14100.00      -7.875300       9.308198    
   14200.00      -7.651876       9.196284    
   14300.00      -7.469327       9.086361    
   14400.00      -7.320941       8.978382    
   14500.00      -7.202281       8.872300    
   14600.00      -7.110505       8.768071    
   14700.00      -7.043998       8.665653    
   14800.00      -7.002216       8.565001    
   14900.00      -6.985699       8.466078    
   15000.00      -6.996255       8.368841    
   15100.00      -7.037437       8.273252    
   15200.00      -7.117423       8.179292    
   15300.00      -7.243558       8.086910    
   15400.00      -7.439002       7.996068    
   15500.00      -7.750945       7.906732    
   15600.00      -8.322412       7.818868    
   15614.00      -8.447348       7.806683    
   15619.00      -8.496712       7.802338    
   15624.00      -8.549002       7.797997    
   15629.00      -8.604581       7.793659    
   15634.00      -8.663852       7.789324    
   15639.00      -8.727304       7.784994    
   15644.00      -8.795540       7.780666    
   15649.00      -8.869296       7.776342    
   15654.00      -8.949496       7.772022    
   15659.00      -9.037323       7.767706    
   15664.00      -9.134292       7.763393    
   15669.00      -9.242496       7.759084    
   15674.00      -9.364760       7.754778    
   15679.00      -9.505162       7.750476    
   15684.00      -9.669864       7.746177    
   15689.00      -9.868828       7.741881    
   15694.00      -10.11977       7.737590    
   15699.00      -10.45914       7.733302    
   15700.00      -10.54387       7.732445    
   15704.00      -10.98378       7.729017    
   15709.00      -12.18598       7.724736    
   15714.00      -11.87299       10.83767    
   15719.00      -10.87446       10.83188    
   15724.00      -10.38441       10.82611    
   15729.00      -10.05618       10.82034    
   15734.00      -9.808772       10.81457    
   15739.00      -9.609995       10.80880    
   15744.00      -9.443748       10.80305    
   15749.00      -9.300838       10.79729    
   15754.00      -9.175432       10.79154    
   15759.00      -9.063702       10.78580    
   15764.00      -8.962939       10.78006    
   15769.00      -8.871175       10.77432    
   15774.00      -8.786926       10.76859    
   15779.00      -8.709053       10.76287    
   15784.00      -8.636658       10.75714    
   15789.00      -8.569034       10.75143    
   15794.00      -8.505571       10.74572    
   15799.00      -8.445804       10.74001    
   15800.00      -8.434252       10.73887    
   15804.00      -8.389327       10.73430    
