  Element 35: Br      Atomic mass:   79.9040

  Edge          keV         A
    K        13.4737    0.9202
    L-I       1.7820    6.9576
    L-II      1.5960    7.7684
    L-III     1.5499    7.9995

Scattering factors as a function of energy: 

   1000.000      -8.036858       4.541822    
   1100.000      -8.491840       3.999297    
   1200.000      -9.148798       3.551347    
   1300.000      -10.13404       3.176816    
   1400.000      -11.77075       2.862523    
   1452.000      -13.28436       2.718071    
   1457.000      -13.48415       2.704786    
   1462.000      -13.69888       2.691602    
   1467.000      -13.93080       2.678519    
   1472.000      -14.18266       2.665535    
   1477.000      -14.45787       2.652649    
   1482.000      -14.76070       2.639860    
   1487.000      -15.09659       2.627168    
   1492.000      -15.47256       2.614571    
   1497.000      -15.89786       2.602067    
   1499.000      -16.08443       2.597092    
   1500.000      -16.18171       2.594610    
   1502.000      -16.38490       2.589657    
   1504.000      -16.60064       2.584719    
   1507.000      -16.95082       2.577339    
   1509.000      -17.20439       2.572438    
   1512.000      -17.61991       2.565112    
   1514.000      -17.92394       2.560247    
   1517.000      -18.42798       2.552976    
   1519.000      -18.80157       2.548146    
   1522.000      -19.43028       2.540929    
   1524.000      -19.90413       2.536134    
   1527.000      -20.71761       2.528970    
   1529.000      -21.34487       2.524211    
   1532.000      -22.45263       2.517099    
   1534.000      -23.33611       2.512375    
   1537.000      -24.96769       2.505314    
   1539.000      -26.34500       2.500624    
   1542.000      -29.11411       2.493615    
   1544.000      -31.75806       2.488960    
   1547.000      -38.57811       2.482001    
   1549.000      -50.49570       2.477379    
   1552.000      -40.44004       35.50607    
   1554.000      -32.31065       34.08927    
   1557.000      -25.63535       32.09894    
   1559.000      -22.70473       30.85601    
   1562.000      -19.50630       29.10798    
   1564.000      -17.90690       28.01516    
   1567.000      -16.06470       26.47656    
   1569.000      -15.12528       25.51361    
   1572.000      -14.06029       24.15639    
   1574.000      -13.54720       23.30604    
   1577.000      -13.04006       22.10626    
   1579.000      -12.86918       21.35375    
   1582.000      -12.87074       20.29091    
   1584.000      -13.06363       19.62359    
   1587.000      -13.72208       18.68010    
   1589.000      -14.51146       18.08711    
   1592.000      -16.69315       17.24786    
   1594.000      -19.83826       16.71985    
   1597.000      -22.96853       32.57865    
   1599.000      -16.37265       31.41839    
   1600.000      -14.57297       30.85911    
   1602.000      -11.99874       29.78049    
   1604.000      -10.16738       28.75266    
   1607.000      -8.177446       27.30023    
   1609.000      -7.170943       26.38785    
   1612.000      -5.981576       25.09726    
   1614.000      -5.348650       24.28573    
   1617.000      -4.579884       23.13667    
   1619.000      -4.164134       22.41342    
   1622.000      -3.656223       21.38836    
   1624.000      -3.381962       20.74254    
   1627.000      -3.049439       19.82635    
   1629.000      -2.873385       19.24857    
   1632.000      -2.665801       18.42815    
   1634.000      -2.560096       17.91029    
   1637.000      -2.443242       17.17429    
   1639.000      -2.389571       16.70926    
   1642.000      -2.340247       16.04782    
   1644.000      -2.325584       15.62953    
   1647.000      -2.327165       15.03404    
   1649.000      -2.342053       14.65713    
   1654.000      -2.419770       13.77993    
   1659.000      -2.544337       12.98729    
   1664.000      -2.704821       12.26993    
   1669.000      -2.892847       11.61970    
   1674.000      -3.101903       11.02945    
   1679.000      -3.327222       10.49288    
   1684.000      -3.564715       10.00446    
   1685.000      -3.613409       9.912112    
   1689.000      -3.811518       9.559278    
   1690.000      -3.861789       9.475039    
   1694.000      -4.065375       9.153027    
   1695.000      -4.116838       9.076099    
   1700.000      -4.376976       8.711550    
   1705.000      -4.641063       8.378082    
   1710.000      -4.908333       8.072757    
   1715.000      -5.178344       7.792965    
   1720.000      -5.450947       7.536383    
   1725.000      -5.726275       7.300941    
   1730.000      -6.004750       7.084795    
   1735.000      -6.287126       6.886295    
   1740.000      -6.574561       6.703973    
   1745.000      -6.868773       6.536510    
   1750.000      -7.172302       6.382732    
   1755.000      -7.489030       6.241585    
   1760.000      -7.825247       6.112125    
   1765.000      -8.192121       5.993511    
   1770.000      -8.612617       5.884986    
   1775.000      -9.148037       5.785875    
   1780.000      -10.11813       5.695576    
   1785.000      -10.07209       7.537114    
   1790.000      -9.672852       7.457200    
   1795.000      -9.578499       7.384732    
   1800.000      -9.583107       7.319335    
   1805.000      -9.637765       7.260674    
   1810.000      -9.723044       7.208460    
   1815.000      -9.829310       7.162437    
   1820.000      -9.951138       7.122391    
   1825.000      -10.08522       7.088134    
   1830.000      -10.22945       7.059514    
   1835.000      -10.38243       7.036406    
   1840.000      -10.54320       7.018716    
   1845.000      -10.71116       7.006373    
   1850.000      -10.88588       6.999335    
   1855.000      -11.06713       6.997584    
   1860.000      -11.25477       7.001127    
   1865.000      -11.44877       7.009995    
   1870.000      -11.64915       7.024246    
   1875.000      -11.85607       7.043959    
   1880.000      -12.06963       7.069240    
   1900.000      -12.99514       7.229058    
   2000.000      -20.28304       10.18979    
   2100.000      -3.428842       11.77834    
   2200.000      -2.692329       10.99608    
   2300.000      -2.131646       10.30473    
   2400.000      -1.617140       9.664959    
   2500.000      -1.260421       9.080627    
   2600.000     -0.9760800       8.548901    
   2700.000     -0.7479268       8.063488    
   2800.000     -0.5639918       7.619036    
   2900.000     -0.4148106       7.210950    
   3000.000     -0.2901239       6.835279    
   3100.000     -0.1928255       6.487295    
   3200.000     -0.1157074       6.165504    
   3300.000     -5.4228805E-02   5.867466    
   3400.000     -6.0579269E-03   5.590806    
   3500.000      2.9134663E-02   5.333571    
   3600.000      5.4099694E-02   5.094016    
   3700.000      7.3579483E-02   4.870638    
   3800.000      8.6557828E-02   4.661876    
   3900.000      9.4050646E-02   4.466463    
   4000.000      9.6905813E-02   4.283268    
   4100.000      9.5834158E-02   4.111279    
   4200.000      9.1433883E-02   3.949587    
   4300.000      8.4210098E-02   3.797375    
   4400.000      7.4590795E-02   3.653907    
   4500.000      6.2939383E-02   3.518515    
   4600.000      4.9565323E-02   3.390598    
   4700.000      3.4732614E-02   3.269608    
   4800.000      1.8666759E-02   3.155047    
   4900.000      6.8710605E-04   3.046486    
   5000.000     -1.7310390E-02   2.943492    
   5100.000     -3.6038399E-02   2.845683    
   5200.000     -5.5375330E-02   2.752712    
   5300.000     -7.5216994E-02   2.664262    
   5400.000     -9.5473759E-02   2.580041    
   5500.000     -0.1160691       2.499782    
   5600.000     -0.1369375       2.423236    
   5700.000     -0.1580230       2.350175    
   5800.000     -0.1792780       2.280390    
   5900.000     -0.2006619       2.213684    
   6000.000     -0.2221407       2.149878    
   6100.000     -0.2436859       2.088804    
   6200.000     -0.2652735       2.030308    
   6300.000     -0.2868842       1.974243    
   6400.000     -0.3085019       1.920478    
   6500.000     -0.3301140       1.868885    
   6600.000     -0.3517109       1.819349    
   6700.000     -0.3732831       1.771761    
   6800.000     -0.3987429       1.726165    
   6900.000     -0.4202207       1.682342    
   7000.000     -0.4440536       1.640261    
   7100.000     -0.4654374       1.599765    
   7200.000     -0.4867855       1.560759    
   7300.000     -0.5081024       1.523169    
   7400.000     -0.5293933       1.486928    
   7500.000     -0.5506647       1.451971    
   7600.000     -0.5719243       1.418237    
   7700.000     -0.5931807       1.385669    
   7800.000     -0.6181743       1.354326    
   7900.000     -0.6394647       1.324075    
   8000.000     -0.6607776       1.294837    
   8100.000     -0.6821253       1.266566    
   8200.000     -0.7035205       1.239219    
   8300.000     -0.7249774       1.212755    
   8400.000     -0.7465103       1.187138    
   8500.000     -0.7681351       1.162331    
   8600.000     -0.7898682       1.138299    
   8700.000     -0.8117267       1.115010    
   8800.000     -0.8337296       1.092434    
   8900.000     -0.8558958       1.070542    
   9000.000     -0.8783477       1.049405    
   9100.000     -0.9009978       1.028901    
   9200.000     -0.9238694       1.009002    
   9300.000     -0.9469881      0.9896861    
   9400.000     -0.9703799      0.9709295    
   9500.000     -0.9940738      0.9527104    
   9600.000      -1.018100      0.9350085    
   9700.000      -1.042490      0.9178041    
   9800.000      -1.067280      0.9010783    
   9900.000      -1.092507      0.8848134    
   10000.00      -1.118212      0.8689921    
   10100.00      -1.144437      0.8535985    
   10200.00      -1.171232      0.8386171    
   10300.00      -1.198647      0.8240329    
   10400.00      -1.226738      0.8098320    
   10500.00      -1.255570      0.7960006    
   10600.00      -1.285208      0.7825261    
   10700.00      -1.315729      0.7693961    
   10800.00      -1.347217      0.7565987    
   10900.00      -1.379763      0.7441227    
   11000.00      -1.413474      0.7319571    
   11100.00      -1.448464      0.7200918    
   11200.00      -1.484867      0.7085168    
   11300.00      -1.522833      0.6972224    
   11400.00      -1.562533      0.6861997    
   11500.00      -1.604165      0.6754398    
   11600.00      -1.647958      0.6649343    
   11700.00      -1.694179      0.6546753    
   11800.00      -1.743142      0.6446548    
   11900.00      -1.795222      0.6348656    
   12000.00      -1.850868      0.6253004    
   12100.00      -1.910626      0.6159524    
   12200.00      -1.975168      0.6068149    
   12300.00      -2.045337      0.5978816    
   12400.00      -2.122203      0.5891465    
   12500.00      -2.207163      0.5806035    
   12600.00      -2.302074      0.5722470    
   12700.00      -2.409488      0.5640717    
   12800.00      -2.533047      0.5560720    
   12900.00      -2.678191      0.5482432    
   13000.00      -2.853576      0.5405802    
   13100.00      -3.074184      0.5330783    
   13200.00      -3.369463      0.5257331    
   13300.00      -3.810784      0.5185400    
   13376.00      -4.383583      0.5131726    
   13381.00      -4.436522      0.5128224    
   13386.00      -4.492511      0.5124726    
   13391.00      -4.551899      0.5121232    
   13396.00      -4.615113      0.5117741    
   13400.00      -4.668775      0.5114951    
   13401.00      -4.682665      0.5114253    
   13406.00      -4.755177      0.5110769    
   13411.00      -4.833415      0.5107289    
   13416.00      -4.918334      0.5103813    
   13421.00      -5.011133      0.5100340    
   13426.00      -5.113431      0.5096871    
   13431.00      -5.227321      0.5093405    
   13436.00      -5.355703      0.5089943    
   13441.00      -5.502725      0.5086484    
   13446.00      -5.674607      0.5083029    
   13451.00      -5.881319      0.5079577    
   13456.00      -6.140346      0.5076129    
   13461.00      -6.486901      0.5072684    
   13466.00      -7.010676      0.5069244    
   13471.00      -8.111352      0.5065807    
   13476.00      -8.288533       3.826232    
   13481.00      -7.062603       3.823221    
   13486.00      -6.506715       3.820216    
   13491.00      -6.142127       3.817216    
   13496.00      -5.870007       3.814221    
   13500.00      -5.692773       3.811830    
   13501.00      -5.652615       3.811232    
   13506.00      -5.471486       3.808248    
   13511.00      -5.316099       3.805269    
   13516.00      -5.180003       3.802294    
   13521.00      -5.058887       3.799325    
   13526.00      -4.949747       3.796361    
   13531.00      -4.850400       3.793402    
   13536.00      -4.759212       3.790449    
   13541.00      -4.674929       3.787500    
   13546.00      -4.596580       3.784557    
   13551.00      -4.523345       3.781619    
   13556.00      -4.454604       3.778685    
   13561.00      -4.389827       3.775757    
   13566.00      -4.328576       3.772833    
   13571.00      -4.270482       3.769915    
   13600.00      -3.982109       3.753086    
   13700.00      -3.330454       3.696321    
   13800.00      -2.917131       3.641448    
   13900.00      -2.614004       3.588391    
   14000.00      -2.375175       3.537073    
   14100.00      -2.178764       3.487425    
   14200.00      -2.012563       3.439379    
   14300.00      -1.869025       3.392871    
   14400.00      -1.743154       3.347841    
   14500.00      -1.631451       3.304231    
   14600.00      -1.531372       3.261985    
   14700.00      -1.441003       3.221053    
   14800.00      -1.358861       3.181384    
   14900.00      -1.283781       3.142931    
   15000.00      -1.214819       3.105649    
   15100.00      -1.151209       3.069495    
   15200.00      -1.092313       3.034429    
   15300.00      -1.037598       3.000410    
   15400.00     -0.9866109       2.967402    
   15500.00     -0.9389649       2.935369    
   15600.00     -0.8943266       2.904278    
   15700.00     -0.8524066       2.874095    
   15800.00     -0.8129507       2.844790    
   15900.00     -0.7757369       2.816334    
   16000.00     -0.7405672       2.788697    
   16100.00     -0.7072669       2.761853    
   16200.00     -0.6756793       2.735776    
   16300.00     -0.6456646       2.710441    
   16400.00     -0.6170953       2.685823    
   16500.00     -0.5898576       2.661901    
   16600.00     -0.5638481       2.638652    
   16700.00     -0.5389722       2.616055    
   16800.00     -0.5151443       2.594090    
   16900.00     -0.4922849       2.572739    
   17000.00     -0.4703220       2.551981    
   17100.00     -0.4491888       2.531801    
   17200.00     -0.4288239       2.512179    
   17300.00     -0.4091706       2.493101    
   17400.00     -0.3901742       2.474550    
   17500.00     -0.3717567       2.456511    
   17600.00     -0.2579902       2.434337    
   17700.00     -0.2386642       2.411631    
   17800.00     -0.2200637       2.389238    
   17900.00     -0.2021517       2.367152    
   18000.00     -0.1848962       2.345368    
   18100.00     -0.1682671       2.323879    
   18200.00     -0.1522363       2.302680    
   18300.00     -0.1367778       2.281768    
   18400.00     -0.1218661       2.261135    
   18500.00     -0.1074782       2.240777    
   18600.00     -9.3591973E-02   2.220689    
   18700.00     -8.0186605E-02   2.200867    
   18800.00     -6.7242645E-02   2.181305    
   18900.00     -5.4740969E-02   2.161999    
   19000.00     -4.2664181E-02   2.142945    
   19100.00     -3.0995546E-02   2.124138    
   19200.00     -1.9719193E-02   2.105574    
   19300.00     -8.8202460E-03   2.087249    
   19400.00      1.7160318E-03   2.069158    
   19500.00      1.1903057E-02   2.051297    
   19600.00      2.1753797E-02   2.033664    
   19700.00      3.1280607E-02   2.016252    
   19800.00      4.0495086E-02   1.999061    
   19900.00      4.9408816E-02   1.982084    
   20000.00      5.8032334E-02   1.965319    
   20100.00      6.6375874E-02   1.948762    
   20200.00      7.4449211E-02   1.932410    
   20300.00      8.2261547E-02   1.916259    
   20400.00      8.9822128E-02   1.900306    
   20500.00      9.7139359E-02   1.884548    
   20600.00      0.1042214       1.868982    
   20700.00      0.1110762       1.853604    
   20800.00      0.1177111       1.838412    
   20900.00      0.1241335       1.823402    
   21000.00      0.1303503       1.808571    
   21100.00      0.1363682       1.793917    
   21200.00      0.1421934       1.779437    
   21300.00      0.1478320       1.765128    
   21400.00      0.1532902       1.750988    
   21500.00      0.1585734       1.737013    
   21600.00      0.1636872       1.723201    
   21700.00      0.1686368       1.709550    
   21800.00      0.1734270       1.696058    
   21900.00      0.1780631       1.682720    
   22000.00      0.1825495       1.669536    
   22100.00      0.1868907       1.656503    
   22200.00      0.1910911       1.643619    
   22300.00      0.1951549       1.630881    
   22400.00      0.1990861       1.618287    
   22500.00      0.2028886       1.605835    
   22600.00      0.2065662       1.593523    
   22700.00      0.2101225       1.581349    
   22800.00      0.2135609       1.569311    
   22900.00      0.2168849       1.557406    
   23000.00      0.2200977       1.545632    
   23100.00      0.2232025       1.533989    
   23200.00      0.2262023       1.522473    
   23300.00      0.2291000       1.511084    
   23400.00      0.2318984       1.499818    
   23500.00      0.2346004       1.488675    
   23600.00      0.2372086       1.477653    
   23700.00      0.2397255       1.466749    
   23800.00      0.2421535       1.455963    
   23900.00      0.2444951       1.445292    
   24000.00      0.2467526       1.434734    
   24100.00      0.2489282       1.424289    
   24200.00      0.2510241       1.413955    
   24300.00      0.2530422       1.403730    
   24400.00      0.2549846       1.393612    
   24500.00      0.2568533       1.383600    
   24600.00      0.2586500       1.373693    
   24700.00      0.2603765       1.363889    
   24800.00      0.2620345       1.354187    
   24900.00      0.2636256       1.344585    
