  Element 48: Cd      Atomic mass:  112.4100

  Edge          keV         A
    K        26.7112    0.4642
    L-I       4.0180    3.0857
    L-II      3.7270    3.3266
    L-III     3.5375    3.5049

Scattering factors as a function of energy: 

   1000.000      -8.823250       18.97439    
   1100.000      -7.509869       16.99037    
   1200.000      -6.612541       15.28803    
   1300.000      -6.008737       13.81915    
   1400.000      -5.608867       12.55004    
   1500.000      -5.340063       11.44427    
   1600.000      -5.177022       10.47541    
   1700.000      -5.210543       9.636207    
   1800.000      -5.188063       8.898671    
   1900.000      -5.212939       8.242898    
   2000.000      -5.277174       7.656940    
   2100.000      -5.379387       7.131240    
   2200.000      -5.508231       6.657531    
   2300.000      -5.665823       6.229008    
   2400.000      -5.851851       5.840010    
   2500.000      -6.119618       5.487723    
   2600.000      -6.367431       5.169758    
   2700.000      -6.682043       4.881777    
   2800.000      -7.009726       4.617664    
   2900.000      -7.392314       4.374723    
   3000.000      -7.850162       4.150704    
   3100.000      -8.397558       3.947763    
   3200.000      -9.091962       3.760025    
   3300.000      -10.03327       3.585961    
   3400.000      -11.48338       3.424232    
   3440.000      -12.38005       3.362727    
   3445.000      -12.51615       3.355161    
   3450.000      -12.65946       3.347622    
   3455.000      -12.81081       3.340109    
   3460.000      -12.97119       3.332622    
   3465.000      -13.14176       3.325162    
   3470.000      -13.32398       3.317728    
   3475.000      -13.51959       3.310320    
   3480.000      -13.73081       3.302938    
   3485.000      -13.96041       3.295582    
   3490.000      -14.21207       3.288251    
   3495.000      -14.49061       3.280946    
   3500.000      -14.80277       3.273666    
   3505.000      -15.15808       3.266411    
   3510.000      -15.57093       3.259182    
   3515.000      -16.06448       3.251978    
   3520.000      -16.67944       3.244799    
   3525.000      -17.49853       3.237644    
   3530.000      -18.73539       3.230515    
   3535.000      -21.38158       3.223409    
   3540.000      -21.39849       10.76738    
   3545.000      -18.76538       10.74802    
   3550.000      -17.55001       10.72867    
   3555.000      -16.75658       10.70934    
   3560.000      -16.17020       10.69001    
   3565.000      -15.70758       10.67069    
   3570.000      -15.32772       10.65139    
   3575.000      -15.00730       10.63209    
   3580.000      -14.73188       10.61281    
   3585.000      -14.49185       10.59353    
   3590.000      -14.28054       10.57427    
   3595.000      -14.09314       10.55502    
   3600.000      -13.92608       10.53578    
   3605.000      -13.77664       10.51655    
   3610.000      -13.64277       10.49733    
   3615.000      -13.52284       10.47813    
   3620.000      -13.41560       10.45894    
   3625.000      -13.32007       10.43976    
   3630.000      -13.23553       10.42059    
   3630.000      -13.23553       10.42059    
   3635.000      -13.16144       10.40143    
   3635.000      -13.16144       10.40143    
   3640.000      -13.09742       10.38229    
   3645.000      -13.04329       10.36316    
   3650.000      -12.99901       10.34405    
   3655.000      -12.96470       10.32495    
   3660.000      -12.94069       10.30586    
   3665.000      -12.92752       10.28679    
   3670.000      -12.92597       10.26773    
   3675.000      -12.93719       10.24868    
   3680.000      -12.96280       10.22965    
   3685.000      -13.00503       10.21063    
   3690.000      -13.06714       10.19163    
   3695.000      -13.15387       10.17264    
   3700.000      -13.27252       10.15367    
   3705.000      -13.43503       10.13471    
   3710.000      -13.66284       10.11576    
   3715.000      -14.00044       10.09684    
   3720.000      -14.56697       10.07792    
   3725.000      -15.98568       10.05903    
   3730.000      -15.43205       13.79229    
   3735.000      -14.18777       13.76774    
   3740.000      -13.53863       13.74320    
   3745.000      -13.08337       13.71867    
   3750.000      -12.72630       13.69415    
   3755.000      -12.42915       13.66965    
   3760.000      -12.17267       13.64516    
   3765.000      -11.94575       13.62068    
   3770.000      -11.74146       13.59621    
   3775.000      -11.55509       13.57175    
   3780.000      -11.38338       13.54731    
   3785.000      -11.22390       13.52288    
   3790.000      -11.07484       13.49846    
   3795.000      -10.93481       13.47406    
   3800.000      -10.80268       13.44967    
   3805.000      -10.67758       13.42530    
   3810.000      -10.55877       13.40094    
   3815.000      -10.44565       13.37660    
   3820.000      -10.33774       13.35227    
   3825.000      -10.23459       13.32795    
   3900.000      -9.105056       12.96520    
   3921.000      -8.902298       12.86434    
   3926.000      -8.861279       12.84038    
   3931.000      -8.823262       12.81643    
   3936.000      -8.788402       12.79251    
   3941.000      -8.756897       12.76861    
   3946.000      -8.728997       12.74472    
   3951.000      -8.705022       12.72086    
   3956.000      -8.685371       12.69701    
   3961.000      -8.670561       12.67319    
   3966.000      -8.661262       12.64939    
   3971.000      -8.658360       12.62561    
   3976.000      -8.663053       12.60185    
   3981.000      -8.677011       12.57811    
   3986.000      -8.702650       12.55439    
   3991.000      -8.743638       12.53070    
   3996.000      -8.805939       12.50702    
   4000.000      -8.877995       12.48810    
   4001.000      -8.900196       12.48337    
   4006.000      -9.048439       12.45974    
   4011.000      -9.309681       12.43613    
   4016.000      -9.992155       12.41255    
   4021.000      -9.699069       14.24475    
   4026.000      -9.064590       14.21965    
   4031.000      -8.723901       14.19458    
   4036.000      -8.478718       14.16953    
   4041.000      -8.281767       14.14451    
   4046.000      -8.114181       14.11952    
   4051.000      -7.966462       14.09455    
   4056.000      -7.833157       14.06961    
   4061.000      -7.710848       14.04470    
   4066.000      -7.597216       14.01982    
   4071.000      -7.490654       13.99496    
   4076.000      -7.389981       13.97013    
   4081.000      -7.294315       13.94532    
   4086.000      -7.202950       13.92055    
   4091.000      -7.115349       13.89580    
   4096.000      -7.031075       13.87108    
   4100.000      -6.965814       13.85133    
   4101.000      -6.949776       13.84639    
   4106.000      -6.871142       13.82173    
   4111.000      -6.794930       13.79709    
   4116.000      -6.720931       13.77248    
   4200.000      -5.698297       13.36345    
   4300.000      -4.791570       12.88771    
   4400.000      -4.072731       12.42480    
   4500.000      -3.482261       11.97524    
   4600.000      -3.145521       11.53984    
   4700.000      -2.738033       11.15401    
   4800.000      -2.387458       10.78472    
   4900.000      -2.157156       10.43949    
   5000.000      -1.896079       10.11699    
   5100.000      -1.666129       9.809722    
   5200.000      -1.462682       9.516732    
   5300.000      -1.271708       9.235643    
   5400.000      -1.110140       8.966494    
   5500.000     -0.9660239       8.708987    
   5600.000     -0.8372435       8.462452    
   5700.000     -0.7220042       8.226266    
   5800.000     -0.6187735       7.999849    
   5900.000     -0.5262346       7.782665    
   6000.000     -0.4432466       7.574213    
   6100.000     -0.3688174       7.374022    
   6200.000     -0.3020792       7.181660    
   6300.000     -0.2422697       6.996717    
   6400.000     -0.1887172       6.818814    
   6500.000     -0.1408264       6.647594    
   6600.000     -9.8068923E-02   6.482722    
   6700.000     -5.9973795E-02   6.323886    
   6800.000     -2.6120249E-02   6.170792    
   6900.000      3.8682206E-03   6.023164    
   7000.000      3.0330162E-02   5.880742    
   7100.000      4.6909429E-02   5.743412    
   7200.000      6.7145377E-02   5.611202    
   7300.000      8.4715389E-02   5.483504    
   7400.000      9.9842228E-02   5.360113    
   7500.000      0.1083451       5.240983    
   7600.000      0.1182256       5.125960    
   7700.000      0.1271708       5.014707    
   7800.000      0.1333663       4.907062    
   7900.000      0.1390247       4.802853    
   8000.000      0.1432248       4.701932    
   8100.000      0.1410596       4.604378    
   8200.000      0.1425855       4.509972    
   8300.000      0.1429870       4.418463    
   8400.000      0.1423513       4.329735    
   8500.000      0.1407585       4.243672    
   8600.000      0.1382817       4.160170    
   8700.000      0.1349882       4.079127    
   8800.000      0.1309392       4.000444    
   8900.000      0.1261911       3.924031    
   9000.000      0.1209776       3.850183    
   9100.000      0.1152094       3.778441    
   9200.000      0.1089317       3.708726    
   9300.000      0.1021854       3.640958    
   9400.000      9.5008828E-02   3.575068    
   9500.000      8.7437011E-02   3.510982    
   9600.000      7.9502419E-02   3.448636    
   9700.000      7.1235098E-02   3.387967    
   9800.000      6.2662564E-02   3.328913    
   9900.000      5.3810548E-02   3.271418    
   10000.00      4.4702526E-02   3.215425    
   10100.00      3.5360433E-02   3.160882    
   10200.00      2.5804589E-02   3.107739    
   10300.00      1.6053507E-02   3.055947    
   10400.00      6.1246767E-03   3.005461    
   10500.00     -3.9660842E-03   2.956235    
   10600.00     -1.4203871E-02   2.908229    
   10700.00     -2.4574881E-02   2.861401    
   10800.00     -3.5066638E-02   2.815712    
   10900.00     -4.5667212E-02   2.771126    
   11000.00     -5.6365971E-02   2.727607    
   11100.00     -6.7152783E-02   2.685119    
   11200.00     -7.8018293E-02   2.643632    
   11300.00     -8.8954158E-02   2.603112    
   11400.00     -9.9952310E-02   2.563530    
   11500.00     -0.1110060       2.524857    
   11600.00     -0.1232697       2.487067    
   11700.00     -0.1344348       2.450144    
   11800.00     -0.1456332       2.414048    
   11900.00     -0.1568613       2.378756    
   12000.00     -0.1681147       2.344242    
   12100.00     -0.1793888       2.310485    
   12200.00     -0.1906773       2.277462    
   12300.00     -0.2028816       2.245160    
   12400.00     -0.2142049       2.213552    
   12500.00     -0.2255349       2.182616    
   12600.00     -0.2368685       2.152333    
   12700.00     -0.2482031       2.122684    
   12800.00     -0.2595367       2.093652    
   12900.00     -0.2708670       2.065219    
   13000.00     -0.2821927       2.037369    
   13100.00     -0.2935120       2.010085    
   13200.00     -0.3048235       1.983353    
   13300.00     -0.3161262       1.957156    
   13400.00     -0.3274189       1.931482    
   13500.00     -0.3387010       1.906315    
   13600.00     -0.3499717       1.881643    
   13700.00     -0.3612303       1.857452    
   13800.00     -0.3724766       1.833730    
   13900.00     -0.3837102       1.810465    
   14000.00     -0.3949311       1.787644    
   14100.00     -0.4061392       1.765256    
   14200.00     -0.4173343       1.743291    
   14300.00     -0.4285170       1.721737    
   14400.00     -0.4396870       1.700585    
   14500.00     -0.4510230       1.679824    
   14600.00     -0.4621705       1.659446    
   14700.00     -0.4733071       1.639440    
   14800.00     -0.4844334       1.619798    
   14900.00     -0.4955498       1.600509    
   15000.00     -0.5066573       1.581566    
   15100.00     -0.5177565       1.562960    
   15200.00     -0.5288479       1.544684    
   15300.00     -0.5399279       1.526728    
   15400.00     -0.5526935       1.509110    
   15500.00     -0.5637671       1.491808    
   15600.00     -0.5748384       1.474805    
   15700.00     -0.5859076       1.458094    
   15800.00     -0.5969762       1.441668    
   15900.00     -0.6080451       1.425520    
   16000.00     -0.6191164       1.409645    
   16100.00     -0.6301937       1.394036    
   16200.00     -0.6426657       1.378701    
   16300.00     -0.6537526       1.363633    
   16400.00     -0.6648446       1.348813    
   16500.00     -0.6759456       1.334236    
   16600.00     -0.6870577       1.319896    
   16700.00     -0.6981829       1.305789    
   16800.00     -0.7093228       1.291910    
   16900.00     -0.7204798       1.278252    
   17000.00     -0.7316558       1.264812    
   17100.00     -0.7428530       1.251585    
   17200.00     -0.7540736       1.238566    
   17300.00     -0.7653196       1.225752    
   17400.00     -0.7765998       1.213136    
   17500.00     -0.7901596       1.200751    
   17600.00     -0.8015024       1.188562    
   17700.00     -0.8128793       1.176560    
   17800.00     -0.8242930       1.164742    
   17900.00     -0.8357466       1.153103    
   18000.00     -0.8472427       1.141640    
   18100.00     -0.8587840       1.130349    
   18200.00     -0.8703736       1.119227    
   18300.00     -0.8820143       1.108271    
   18400.00     -0.8937095       1.097477    
   18500.00     -0.9054624       1.086842    
   18600.00     -0.9172763       1.076363    
   18700.00     -0.9291546       1.066036    
   18800.00     -0.9411005       1.055859    
   18900.00     -0.9531183       1.045829    
   19000.00     -0.9652115       1.035943    
   19100.00     -0.9773840       1.026198    
   19200.00     -0.9896400       1.016592    
   19300.00      -1.001983       1.007122    
   19400.00      -1.014419      0.9977845    
   19500.00      -1.026951      0.9885780    
   19600.00      -1.039585      0.9794997    
   19700.00      -1.052325      0.9705473    
   19800.00      -1.065176      0.9617186    
   19900.00      -1.078144      0.9530110    
   20000.00      -1.091234      0.9444223    
   20100.00      -1.104453      0.9359505    
   20200.00      -1.117805      0.9275933    
   20300.00      -1.131297      0.9193489    
   20400.00      -1.144937      0.9112149    
   20500.00      -1.158731      0.9031894    
   20600.00      -1.172685      0.8952705    
   20700.00      -1.186809      0.8874564    
   20800.00      -1.201108      0.8797452    
   20900.00      -1.215593      0.8721349    
   21000.00      -1.230271      0.8646238    
   21100.00      -1.245153      0.8572103    
   21200.00      -1.260247      0.8498926    
   21300.00      -1.275563      0.8426691    
   21400.00      -1.291113      0.8355380    
   21500.00      -1.306908      0.8284979    
   21600.00      -1.322961      0.8215471    
   21700.00      -1.339283      0.8146841    
   21800.00      -1.355888      0.8079076    
   21900.00      -1.372791      0.8012159    
   22000.00      -1.390007      0.7946076    
   22100.00      -1.407552      0.7880814    
   22200.00      -1.425444      0.7816359    
   22300.00      -1.443701      0.7752699    
   22400.00      -1.462343      0.7689818    
   22500.00      -1.481391      0.7627704    
   22600.00      -1.500868      0.7566345    
   22700.00      -1.520799      0.7505729    
   22800.00      -1.541208      0.7445844    
   22900.00      -1.562127      0.7386677    
   23000.00      -1.583584      0.7328217    
   23100.00      -1.605613      0.7270453    
   23200.00      -1.628250      0.7213374    
   23300.00      -1.651535      0.7156969    
   23400.00      -1.675510      0.7101226    
   23500.00      -1.700223      0.7046137    
   23600.00      -1.725724      0.6991689    
   23700.00      -1.752070      0.6937873    
   23800.00      -1.779323      0.6884682    
   23900.00      -1.807554      0.6832101    
   24000.00      -1.836837      0.6780125    
   24100.00      -1.867260      0.6728742    
   24200.00      -1.898916      0.6677943    
   24300.00      -1.931914      0.6627722    
   24400.00      -1.966376      0.6578068    
   24500.00      -2.002439      0.6528971    
   24600.00      -2.040260      0.6480425    
   24700.00      -2.080021      0.6432421    
   24800.00      -2.121929      0.6384951    
   24900.00      -2.166229      0.6338006    
