  Element 29: Cu      Atomic mass:   63.5460

  Edge          keV         A
    K         8.9789    1.3808
    L-I       1.0961   11.3114

Scattering factors as a function of energy: 

   1000.000      -11.88396       15.93741    
   1100.000      -8.689785       14.46938    
   1200.000      -5.179951       12.84940    
   1300.000      -3.617002       11.52763    
   1400.000      -2.659106       10.33003    
   1500.000      -2.572897       9.517266    
   1600.000      -1.451776       8.907343    
   1700.000     -0.6990443       8.140284    
   1800.000     -0.4362242       7.462347    
   1900.000     -0.2471104       6.866064    
   2000.000     -0.1119459       6.338509    
   2100.000     -1.6984615E-02   5.869271    
   2200.000      3.0905614E-02   5.450206    
   2300.000      6.7837447E-02   5.078173    
   2400.000      9.1014206E-02   4.743593    
   2500.000      0.1010314       4.441439    
   2600.000      0.1008722       4.167588    
   2700.000      9.2817500E-02   3.918560    
   2800.000      7.8626409E-02   3.691400    
   2900.000      5.9665404E-02   3.483586    
   3000.000      3.7003338E-02   3.292953    
   3100.000      1.1165971E-02   3.118332    
   3200.000     -1.6755981E-02   2.957417    
   3300.000     -4.6249848E-02   2.808793    
   3400.000     -7.6911844E-02   2.671224    
   3500.000     -0.1084236       2.543627    
   3600.000     -0.1405348       2.425051    
   3700.000     -0.1730496       2.314655    
   3800.000     -0.2080681       2.211820    
   3900.000     -0.2425742       2.115914    
   4000.000     -0.2756727       2.026214    
   4100.000     -0.3087072       1.942184    
   4200.000     -0.3416350       1.863349    
   4300.000     -0.3744286       1.789282    
   4400.000     -0.4070727       1.719603    
   4500.000     -0.4395629       1.653965    
   4600.000     -0.4719031       1.592057    
   4700.000     -0.5041052       1.533598    
   4800.000     -0.5386567       1.478412    
   4900.000     -0.5706960       1.426268    
   5000.000     -0.6026538       1.376877    
   5100.000     -0.6345630       1.330047    
   5200.000     -0.6664602       1.285601    
   5300.000     -0.6983861       1.243377    
   5400.000     -0.7303846       1.203228    
   5500.000     -0.7625038       1.165019    
   5600.000     -0.7947955       1.128625    
   5700.000     -0.8273157       1.093931    
   5800.000     -0.8601248       1.060832    
   5900.000     -0.8932877       1.029230    
   6000.000     -0.9268753      0.9990361    
   6100.000     -0.9609641      0.9701656    
   6200.000     -0.9956380      0.9425417    
   6300.000      -1.030989      0.9160928    
   6400.000      -1.067116      0.8907527    
   6500.000      -1.104133      0.8664593    
   6600.000      -1.142162      0.8431551    
   6700.000      -1.181344      0.8207865    
   6800.000      -1.221833      0.7993035    
   6900.000      -1.263809      0.7786596    
   7000.000      -1.307473      0.7588111    
   7100.000      -1.353060      0.7397171    
   7200.000      -1.400840      0.7213395    
   7300.000      -1.451134      0.7036425    
   7400.000      -1.504316      0.6865927    
   7500.000      -1.560841      0.6701584    
   7600.000      -1.621254      0.6543102    
   7700.000      -1.686231      0.6390201    
   7800.000      -1.756612      0.6242620    
   7900.000      -1.833466      0.6100113    
   8000.000      -1.918182      0.5962448    
   8100.000      -2.012610      0.5829404    
   8200.000      -2.119284      0.5700778    
   8300.000      -2.241817      0.5576371    
   8400.000      -2.385587      0.5456002    
   8500.000      -2.559136      0.5339493    
   8600.000      -2.777189      0.5226682    
   8700.000      -3.068509      0.5117413    
   8800.000      -3.502025      0.5011535    
   8881.000      -4.109138      0.4928167    
   8886.000      -4.162786      0.4923088    
   8891.000      -4.219535      0.4918018    
   8896.000      -4.279750      0.4912956    
   8900.000      -4.330702      0.4908912    
   8901.000      -4.343866      0.4907912    
   8906.000      -4.412406      0.4902919    
   8911.000      -4.486004      0.4897933    
   8916.000      -4.565441      0.4892955    
   8921.000      -4.651673      0.4887986    
   8926.000      -4.745973      0.4883023    
   8931.000      -4.849935      0.4878068    
   8936.000      -4.965703      0.4873121    
   8941.000      -5.096224      0.4868181    
   8946.000      -5.245698      0.4863249    
   8951.000      -5.420420      0.4858324    
   8956.000      -5.630439      0.4853407    
   8961.000      -5.893317      0.4848498    
   8966.000      -6.244093      0.4843597    
   8971.000      -6.771331      0.4838702    
   8976.000      -7.853546      0.4833815    
   8981.000      -8.208865       3.901051    
   8986.000      -6.875939       3.896725    
   8991.000      -6.289705       3.892410    
   8996.000      -5.907825       3.888104    
   9000.000      -5.675008       3.884668    
   9001.000      -5.623607       3.883809    
   9006.000      -5.396915       3.879525    
   9011.000      -5.208117       3.875250    
   9016.000      -5.046257       3.870986    
   9021.000      -4.904527       3.866731    
   9026.000      -4.778416       3.862486    
   9031.000      -4.664780       3.858252    
   9036.000      -4.561343       3.854027    
   9041.000      -4.466400       3.849812    
   9046.000      -4.378660       3.845608    
   9051.000      -4.297062       3.841413    
   9056.000      -4.220804       3.837229    
   9061.000      -4.149220       3.833053    
   9066.000      -4.081763       3.828888    
   9071.000      -4.017976       3.824733    
   9076.000      -3.957475       3.820587    
   9100.000      -3.703777       3.800822    
   9200.000      -3.005089       3.720812    
   9300.000      -2.568323       3.644412    
   9400.000      -2.251165       3.571419    
   9500.000      -2.003482       3.501638    
   9600.000      -1.801536       3.434892    
   9700.000      -1.632088       3.371015    
   9800.000      -1.486963       3.309853    
   9900.000      -1.360739       3.251260    
   10000.00      -1.249616       3.195102    
   10100.00      -1.150827       3.141254    
   10200.00      -1.062285       3.089598    
   10300.00     -0.9823771       3.040022    
   10400.00     -0.9098281       2.992425    
   10500.00     -0.8436103       2.946709    
   10600.00     -0.7828854       2.902784    
   10700.00     -0.7269584       2.860564    
   10800.00     -0.6752453       2.819970    
   10900.00     -0.6272533       2.780926    
   11000.00     -0.5825594       2.743360    
   11100.00     -0.5408005       2.707207    
   11200.00     -0.5016611       2.672403    
   11300.00     -0.4648646       2.638889    
   11400.00     -0.4301687       2.606610    
   11500.00     -0.3973581       2.575511    
   11600.00     -0.3662416       2.545543    
   11700.00     -0.2577730       2.514791    
   11800.00     -0.2270009       2.479953    
   11900.00     -0.1979159       2.445824    
   12000.00     -0.1703994       2.412385    
   12100.00     -0.1443457       2.379616    
   12200.00     -0.1196590       2.347501    
   12300.00     -9.6250981E-02   2.316021    
   12400.00     -7.4041843E-02   2.285161    
   12500.00     -5.2957505E-02   2.254903    
   12600.00     -3.2930467E-02   2.225232    
   12700.00     -1.3898520E-02   2.196132    
   12800.00      4.1963062E-03   2.167590    
   12900.00      2.1406950E-02   2.139591    
   13000.00      3.7783127E-02   2.112120    
   13100.00      5.3370517E-02   2.085165    
   13200.00      6.8211608E-02   2.058712    
   13300.00      8.2346380E-02   2.032750    
   13400.00      9.5811598E-02   2.007267    
   13500.00      0.1086421       1.982249    
   13600.00      0.1208701       1.957686    
   13700.00      0.1325257       1.933568    
   13800.00      0.1436376       1.909882    
   13900.00      0.1542321       1.886620    
   14000.00      0.1643345       1.863770    
   14100.00      0.1739683       1.841324    
   14200.00      0.1831554       1.819271    
   14300.00      0.1919170       1.797603    
   14400.00      0.2002726       1.776311    
   14500.00      0.2082408       1.755385    
   14600.00      0.2158392       1.734817    
   14700.00      0.2230843       1.714600    
   14800.00      0.2299919       1.694726    
   14900.00      0.2365767       1.675186    
   15000.00      0.2428530       1.655973    
   15100.00      0.2488341       1.637080    
   15200.00      0.2545326       1.618500    
   15300.00      0.2599606       1.600226    
   15400.00      0.2651294       1.582251    
   15500.00      0.2700500       1.564569    
   15600.00      0.2747327       1.547173    
   15700.00      0.2791873       1.530058    
   15800.00      0.2834232       1.513217    
   15900.00      0.2874492       1.496644    
   16000.00      0.2912739       1.480334    
   16100.00      0.2949053       1.464281    
   16200.00      0.2983513       1.448480    
   16300.00      0.3016191       1.432927    
   16400.00      0.3047158       1.417614    
   16500.00      0.3076482       1.402538    
   16600.00      0.3104227       1.387693    
   16700.00      0.3130453       1.373076    
   16800.00      0.3155220       1.358681    
   16900.00      0.3178583       1.344504    
   17000.00      0.3200598       1.330541    
   17100.00      0.3221314       1.316787    
   17200.00      0.3240782       1.303237    
   17300.00      0.3259048       1.289890    
   17400.00      0.3276156       1.276739    
   17500.00      0.3289157       1.263782    
   17600.00      0.3304077       1.251016    
   17700.00      0.3317988       1.238437    
   17800.00      0.3330910       1.226040    
   17900.00      0.3340573       1.213822    
   18000.00      0.3307346       1.201838    
   18100.00      0.3317287       1.190104    
   18200.00      0.3326409       1.178540    
   18300.00      0.3334742       1.167141    
   18400.00      0.3342315       1.155904    
   18500.00      0.3349158       1.144826    
   18600.00      0.3355297       1.133905    
   18700.00      0.3360759       1.123136    
   18800.00      0.3365568       1.112519    
   18900.00      0.3369749       1.102049    
   19000.00      0.3373324       1.091724    
   19100.00      0.3376316       1.081541    
   19200.00      0.3378747       1.071497    
   19300.00      0.3380636       1.061591    
   19400.00      0.3382005       1.051819    
   19500.00      0.3382872       1.042179    
   19600.00      0.3383256       1.032670    
   19700.00      0.3383173       1.023287    
   19800.00      0.3382643       1.014030    
   19900.00      0.3381679       1.004895    
   20000.00      0.3380300      0.9958817    
   20100.00      0.3378520      0.9869866    
   20200.00      0.3376353      0.9782081    
   20300.00      0.3373815      0.9695442    
   20400.00      0.3370918      0.9609927    
   20500.00      0.3367676      0.9525518    
   20600.00      0.3364101      0.9442195    
   20700.00      0.3360206      0.9359941    
   20800.00      0.3356003      0.9278737    
   20900.00      0.3351504      0.9198565    
   21000.00      0.3346718      0.9119407    
   21100.00      0.3341658      0.9041247    
   21200.00      0.3336332      0.8964067    
   21300.00      0.3330752      0.8887853    
   21400.00      0.3324926      0.8812587    
   21500.00      0.3318864      0.8738253    
   21600.00      0.3312576      0.8664836    
   21700.00      0.3306068      0.8592321    
   21800.00      0.3299350      0.8520696    
   21900.00      0.3292431      0.8449942    
   22000.00      0.3285317      0.8380047    
   22100.00      0.3278016      0.8310997    
   22200.00      0.3270535      0.8242779    
   22300.00      0.3262883      0.8175381    
   22400.00      0.3255064      0.8108786    
   22500.00      0.3247086      0.8042984    
   22600.00      0.3238955      0.7977962    
   22700.00      0.3230677      0.7913707    
   22800.00      0.3222259      0.7850209    
   22900.00      0.3213706      0.7787454    
   23000.00      0.3205023      0.7725431    
   23100.00      0.3196217      0.7664129    
   23200.00      0.3187293      0.7603536    
   23300.00      0.3178262      0.7543644    
   23400.00      0.3158236      0.7484457    
   23500.00      0.3149025      0.7425987    
   23600.00      0.3139694      0.7368183    
   23700.00      0.3130264      0.7311036    
   23800.00      0.3120743      0.7254537    
   23900.00      0.3111135      0.7198673    
   24000.00      0.3101443      0.7143437    
   24100.00      0.3091672      0.7088820    
   24200.00      0.3081825      0.7034811    
   24300.00      0.3071906      0.6981403    
   24400.00      0.3061918      0.6928586    
   24500.00      0.3051865      0.6876351    
   24600.00      0.3041749      0.6824690    
   24700.00      0.3031575      0.6773595    
   24800.00      0.3021345      0.6723057    
   24900.00      0.3011061      0.6673068    
