  Element 49: In      Atomic mass:  114.8200

  Edge          keV         A
    K        27.9399    0.4438
    L-I       4.2375    2.9259
    L-II      3.9380    3.1484
    L-III     3.7301    3.3239

Scattering factors as a function of energy: 

   1000.000      -9.620117       20.60602    
   1100.000      -8.054237       18.47271    
   1200.000      -7.008023       16.63640    
   1300.000      -6.270947       15.05404    
   1400.000      -5.770803       13.68025    
   1500.000      -5.439097       12.48567    
   1600.000      -5.212864       11.43919    
   1700.000      -5.076109       10.51707    
   1800.000      -5.081061       9.703634    
   1900.000      -5.118416       8.995317    
   2000.000      -5.143920       8.362679    
   2100.000      -5.204079       7.794830    
   2200.000      -5.294268       7.282991    
   2300.000      -5.415628       6.819891    
   2400.000      -5.558311       6.399615    
   2500.000      -5.725870       6.016752    
   2600.000      -5.918964       5.666907    
   2700.000      -6.180744       5.348144    
   2800.000      -6.431940       5.057722    
   2900.000      -6.747009       4.792847    
   3000.000      -7.077412       4.548751    
   3100.000      -7.458972       4.326771    
   3200.000      -7.910831       4.121375    
   3300.000      -8.461382       3.930896    
   3400.000      -9.162023       3.753936    
   3500.000      -10.11621       3.589182    
   3600.000      -11.60928       3.435501    
   3633.000      -12.36531       3.387042    
   3638.000      -12.50117       3.379793    
   3643.000      -12.64437       3.372568    
   3648.000      -12.79578       3.365368    
   3653.000      -12.95641       3.358191    
   3658.000      -13.12748       3.351039    
   3663.000      -13.31050       3.343911    
   3668.000      -13.50729       3.336806    
   3673.000      -13.72018       3.329725    
   3678.000      -13.95207       3.322668    
   3683.000      -14.20684       3.315634    
   3688.000      -14.48958       3.308623    
   3693.000      -14.80739       3.301635    
   3698.000      -15.17043       3.294671    
   3700.000      -15.33152       3.291891    
   3703.000      -15.59412       3.287729    
   3708.000      -16.10328       3.280810    
   3713.000      -16.74225       3.273914    
   3718.000      -17.60205       3.267041    
   3723.000      -18.92500       3.260190    
   3728.000      -21.94412       3.253362    
   3733.000      -21.15192       11.04794    
   3738.000      -18.65468       11.01754    
   3743.000      -17.43659       10.98730    
   3748.000      -16.62749       10.95725    
   3753.000      -16.02358       10.92737    
   3758.000      -15.54389       10.89766    
   3763.000      -15.14781       10.86812    
   3768.000      -14.81213       10.83876    
   3773.000      -14.52228       10.80956    
   3778.000      -14.26855       10.78053    
   3783.000      -14.04416       10.75166    
   3788.000      -13.84414       10.72296    
   3793.000      -13.66484       10.69443    
   3798.000      -13.50342       10.66606    
   3800.000      -13.44335       10.65475    
   3803.000      -13.35770       10.63785    
   3808.000      -13.22596       10.60979    
   3813.000      -13.10684       10.58190    
   3818.000      -12.99924       10.55417    
   3823.000      -12.90230       10.52659    
   3828.000      -12.81532       10.49917    
   3841.000      -12.63241       10.42859    
   3846.000      -12.57788       10.40172    
   3851.000      -12.53192       10.37499    
   3856.000      -12.49459       10.34842    
   3861.000      -12.46603       10.32199    
   3866.000      -12.44654       10.29572    
   3871.000      -12.43659       10.26958    
   3876.000      -12.43685       10.24360    
   3881.000      -12.44824       10.21775    
   3886.000      -12.47201       10.19205    
   3891.000      -12.50989       10.16649    
   3896.000      -12.56427       10.14108    
   3900.000      -12.62188       10.12084    
   3901.000      -12.63853       10.11580    
   3906.000      -12.73760       10.09066    
   3911.000      -12.86905       10.06565    
   3916.000      -13.04523       10.04079    
   3921.000      -13.28822       10.01606    
   3926.000      -13.64383       9.991458    
   3931.000      -14.23485       9.966997    
   3936.000      -15.70340       9.942667    
   3941.000      -15.14090       13.78414    
   3946.000      -13.86299       13.74954    
   3951.000      -13.19963       13.71513    
   3956.000      -12.73658       13.68091    
   3961.000      -12.37510       13.64688    
   3966.000      -12.07558       13.61304    
   3971.000      -11.81815       13.57939    
   3976.000      -11.59133       13.54593    
   3981.000      -11.38792       13.51265    
   3986.000      -11.20307       13.47956    
   3991.000      -11.03338       13.44664    
   3996.000      -10.87636       13.41391    
   4000.000      -10.75858       13.38786    
   4001.000      -10.73012       13.38136    
   4006.000      -10.59320       13.34899    
   4011.000      -10.46446       13.31679    
   4016.000      -10.34299       13.28478    
   4021.000      -10.22800       13.25293    
   4026.000      -10.11888       13.22126    
   4031.000      -10.01512       13.18976    
   4036.000      -9.916277       13.15844    
   4100.000      -8.972916       12.77208    
   4140.000      -8.616801       12.54372    
   4145.000      -8.584288       12.51585    
   4150.000      -8.554716       12.48812    
   4155.000      -8.528238       12.46054    
   4160.000      -8.505053       12.43311    
   4165.000      -8.485400       12.40582    
   4170.000      -8.469594       12.37867    
   4175.000      -8.458027       12.35166    
   4180.000      -8.451204       12.32480    
   4185.000      -8.449775       12.29807    
   4190.000      -8.454600       12.27148    
   4195.000      -8.466843       12.24503    
   4200.000      -8.488109       12.21872    
   4205.000      -8.520723       12.19254    
   4210.000      -8.568189       12.16650    
   4215.000      -8.636155       12.14060    
   4220.000      -8.734588       12.11483    
   4225.000      -8.883768       12.08919    
   4230.000      -9.136117       12.06368    
   4235.000      -9.734893       12.03830    
   4240.000      -9.689471       13.86571    
   4245.000      -8.994583       13.83905    
   4250.000      -8.647552       13.81252    
   4255.000      -8.404243       13.78612    
   4260.000      -8.211948       13.75986    
   4265.000      -8.050273       13.73372    
   4270.000      -7.909103       13.70771    
   4275.000      -7.782726       13.68183    
   4280.000      -7.667568       13.65607    
   4285.000      -7.561257       13.63045    
   4290.000      -7.462104       13.60494    
   4295.000      -7.368905       13.57957    
   4300.000      -7.280745       13.55431    
   4305.000      -7.196927       13.52918    
   4310.000      -7.116878       13.50417    
   4315.000      -7.040160       13.47928    
   4320.000      -6.966408       13.45452    
   4325.000      -6.895326       13.42987    
   4330.000      -6.826648       13.40534    
   4335.000      -6.760167       13.38093    
   4400.000      -6.036684       13.07408    
   4500.000      -5.216025       12.63747    
   4600.000      -4.586904       12.23960    
   4700.000      -4.076517       11.87628    
   4800.000      -3.648225       11.54393    
   4900.000      -3.051923       11.21557    
   5000.000      -2.716684       10.88601    
   5100.000      -2.423279       10.57544    
   5200.000      -2.053329       10.26510    
   5300.000      -1.817399       9.965174    
   5400.000      -1.608070       9.678737    
   5500.000      -1.421609       9.404993    
   5600.000      -1.242030       9.141077    
   5700.000      -1.091969       8.887983    
   5800.000     -0.9573733       8.645290    
   5900.000     -0.8364584       8.412432    
   6000.000     -0.7276968       8.188873    
   6100.000     -0.6297747       7.974123    
   6200.000     -0.5415545       7.767715    
   6300.000     -0.4620449       7.569220    
   6400.000     -0.3903795       7.378234    
   6500.000     -0.3257951       7.194379    
   6600.000     -0.2676182       7.017301    
   6700.000     -0.2152517       6.846665    
   6800.000     -0.1681646       6.682161    
   6900.000     -0.1258835       6.523497    
   7000.000     -8.7984264E-02   6.370395    
   7100.000     -5.4086655E-02   6.222597    
   7200.000     -2.3848634E-02   6.079858    
   7300.000      3.0379370E-03   5.941947    
   7400.000      2.5742525E-02   5.808653    
   7500.000      3.9831575E-02   5.679974    
   7600.000      5.8204472E-02   5.555813    
   7700.000      7.4223846E-02   5.435678    
   7800.000      8.8077143E-02   5.319394    
   7900.000      9.5412686E-02   5.206873    
   8000.000      0.1053914       5.098123    
   8100.000      0.1136909       4.992754    
   8200.000      0.1204404       4.890626    
   8300.000      0.1257550       4.791605    
   8400.000      0.1289506       4.695578    
   8500.000      0.1261521       4.602493    
   8600.000      0.1277380       4.512395    
   8700.000      0.1282909       4.424940    
   8800.000      0.1278871       4.340022    
   8900.000      0.1265974       4.257545    
   9000.000      0.1245486       4.177756    
   9100.000      0.1217746       4.100235    
   9200.000      0.1183310       4.024898    
   9300.000      0.1142692       3.951659    
   9400.000      0.1096367       3.880442    
   9500.000      0.1044773       3.811170    
   9600.000      9.8831564E-02   3.743773    
   9700.000      9.2737019E-02   3.678183    
   9800.000      8.6228229E-02   3.614334    
   9900.000      7.9337433E-02   3.552165    
   10000.00      7.2094239E-02   3.491616    
   10100.00      6.4526290E-02   3.432629    
   10200.00      5.6659203E-02   3.375152    
   10300.00      4.8516531E-02   3.319132    
   10400.00      4.0120408E-02   3.264520    
   10500.00      3.1491078E-02   3.211268    
   10600.00      2.2647552E-02   3.159331    
   10700.00      1.3607492E-02   3.108665    
   10800.00      4.3870425E-03   3.059227    
   10900.00     -4.9984660E-03   3.010980    
   11000.00     -1.4535142E-02   2.963883    
   11100.00     -2.4209827E-02   2.917900    
   11200.00     -3.4010295E-02   2.872996    
   11300.00     -4.3925460E-02   2.829136    
   11400.00     -5.3944673E-02   2.786288    
   11500.00     -6.4058408E-02   2.744421    
   11600.00     -7.4257568E-02   2.703504    
   11700.00     -8.4533669E-02   2.663510    
   11800.00     -9.4879173E-02   2.624408    
   11900.00     -0.1052867       2.586174    
   12000.00     -0.1157497       2.548781    
   12100.00     -0.1262621       2.512203    
   12200.00     -0.1368179       2.476419    
   12300.00     -0.1474122       2.441403    
   12400.00     -0.1580406       2.407135    
   12500.00     -0.1701095       2.373597    
   12600.00     -0.1808073       2.340777    
   12700.00     -0.1915212       2.308642    
   12800.00     -0.2022513       2.277173    
   12900.00     -0.2129946       2.246352    
   13000.00     -0.2237483       2.216160    
   13100.00     -0.2345093       2.186581    
   13200.00     -0.2463433       2.157599    
   13300.00     -0.2571144       2.129208    
   13400.00     -0.2678905       2.101380    
   13500.00     -0.2786658       2.074101    
   13600.00     -0.2894384       2.047357    
   13700.00     -0.3002066       2.021133    
   13800.00     -0.3109696       1.995416    
   13900.00     -0.3217258       1.970193    
   14000.00     -0.3324746       1.945451    
   14100.00     -0.3432152       1.921177    
   14200.00     -0.3539466       1.897360    
   14300.00     -0.3646685       1.873988    
   14400.00     -0.3753802       1.851050    
   14500.00     -0.3860818       1.828535    
   14600.00     -0.3967727       1.806433    
   14700.00     -0.4074528       1.784734    
   14800.00     -0.4181222       1.763427    
   14900.00     -0.4287809       1.742503    
   15000.00     -0.4394290       1.721953    
   15100.00     -0.4500668       1.701768    
   15200.00     -0.4606945       1.681939    
   15300.00     -0.4713125       1.662459    
   15400.00     -0.4819210       1.643317    
   15500.00     -0.4925076       1.624508    
   15600.00     -0.5033034       1.606024    
   15700.00     -0.5138884       1.587856    
   15800.00     -0.5244666       1.569998    
   15900.00     -0.5350385       1.552442    
   16000.00     -0.5456047       1.535181    
   16100.00     -0.5561627       1.518209    
   16200.00     -0.5685115       1.501531    
   16300.00     -0.5790550       1.485150    
   16400.00     -0.5896059       1.469038    
   16500.00     -0.6001569       1.453189    
   16600.00     -0.6107085       1.437597    
   16700.00     -0.6212618       1.422258    
   16800.00     -0.6318178       1.407165    
   16900.00     -0.6423778       1.392314    
   17000.00     -0.6529418       1.377698    
   17100.00     -0.6650278       1.363322    
   17200.00     -0.6756017       1.349190    
   17300.00     -0.6861889       1.335278    
   17400.00     -0.6967878       1.321583    
   17500.00     -0.7073996       1.308100    
   17600.00     -0.7180257       1.294823    
   17700.00     -0.7286680       1.281750    
   17800.00     -0.7393280       1.268876    
   17900.00     -0.7500080       1.256197    
   18000.00     -0.7607096       1.243708    
   18100.00     -0.7714351       1.231406    
   18200.00     -0.7821867       1.219288    
   18300.00     -0.7929702       1.207349    
   18400.00     -0.8060690       1.195600    
   18500.00     -0.8169246       1.184048    
   18600.00     -0.8278037       1.172664    
   18700.00     -0.8387176       1.161446    
   18800.00     -0.8496690       1.150391    
   18900.00     -0.8606611       1.139494    
   19000.00     -0.8716962       1.128754    
   19100.00     -0.8827770       1.118167    
   19200.00     -0.8939061       1.107730    
   19300.00     -0.9050862       1.097440    
   19400.00     -0.9163203       1.087294    
   19500.00     -0.9276114       1.077291    
   19600.00     -0.9389625       1.067426    
   19700.00     -0.9503766       1.057698    
   19800.00     -0.9618567       1.048104    
   19900.00     -0.9734068       1.038642    
   20000.00     -0.9850299       1.029308    
   20100.00     -0.9967297       1.020101    
   20200.00      -1.008510       1.011019    
   20300.00      -1.020374       1.002059    
   20400.00      -1.032327      0.9932181    
   20500.00      -1.044371      0.9844953    
   20600.00      -1.056513      0.9758883    
   20700.00      -1.068755      0.9673947    
   20800.00      -1.081103      0.9590129    
   20900.00      -1.093562      0.9507405    
   21000.00      -1.106136      0.9425758    
   21100.00      -1.118830      0.9345169    
   21200.00      -1.131651      0.9265619    
   21300.00      -1.144603      0.9187092    
   21400.00      -1.157693      0.9109567    
   21500.00      -1.170927      0.9033028    
   21600.00      -1.184310      0.8957459    
   21700.00      -1.197851      0.8882844    
   21800.00      -1.211556      0.8809167    
   21900.00      -1.225432      0.8736409    
   22000.00      -1.239488      0.8664557    
   22100.00      -1.253731      0.8593596    
   22200.00      -1.268169      0.8523510    
   22300.00      -1.282812      0.8454286    
   22400.00      -1.297670      0.8385908    
   22500.00      -1.312753      0.8318363    
   22600.00      -1.328070      0.8251638    
   22700.00      -1.343634      0.8185719    
   22800.00      -1.359455      0.8120593    
   22900.00      -1.375547      0.8056247    
   23000.00      -1.391922      0.7992668    
   23100.00      -1.408595      0.7929844    
   23200.00      -1.425581      0.7867764    
   23300.00      -1.442896      0.7806416    
   23400.00      -1.460556      0.7745786    
   23500.00      -1.478580      0.7685865    
   23600.00      -1.496987      0.7626642    
   23700.00      -1.515797      0.7568104    
   23800.00      -1.535034      0.7510244    
   23900.00      -1.554720      0.7453048    
   24000.00      -1.574883      0.7396507    
   24100.00      -1.595548      0.7340611    
   24200.00      -1.616747      0.7285349    
   24300.00      -1.638511      0.7230715    
   24400.00      -1.660876      0.7176694    
   24500.00      -1.683881      0.7123281    
   24600.00      -1.707566      0.7070464    
   24700.00      -1.731978      0.7018237    
   24800.00      -1.757165      0.6966589    
   24900.00      -1.783184      0.6915511    
