  Element 36: Kr      Atomic mass:   83.8000

  Edge          keV         A
    K        14.3256    0.8655
    L-I       1.9210    6.4542
    L-II      1.7272    7.1783
    L-III     1.6749    7.4025

Scattering factors as a function of energy: 

   1000.000      -7.565320       5.185538    
   1100.000      -7.871472       4.566841    
   1200.000      -8.318058       4.056028    
   1300.000      -8.938871       3.629152    
   1400.000      -9.827395       3.268250    
   1500.000      -11.23339       2.960071    
   1577.000      -13.26037       2.752298    
   1582.000      -13.46089       2.739590    
   1587.000      -13.67647       2.726972    
   1592.000      -13.90937       2.714444    
   1597.000      -14.16234       2.702004    
   1600.000      -14.32514       2.694582    
   1602.000      -14.43879       2.689651    
   1607.000      -14.74298       2.677386    
   1612.000      -15.08034       2.665206    
   1617.000      -15.45784       2.653111    
   1622.000      -15.88463       2.641100    
   1627.000      -16.37300       2.629174    
   1630.000      -16.70234       2.622057    
   1632.000      -16.93979       2.617329    
   1635.000      -17.32704       2.610262    
   1637.000      -17.60886       2.605567    
   1640.000      -18.07331       2.598548    
   1642.000      -18.41523       2.593885    
   1645.000      -18.98621       2.586915    
   1647.000      -19.41276       2.582284    
   1650.000      -20.13752       2.575362    
   1652.000      -20.68970       2.570763    
   1655.000      -21.65066       2.563888    
   1657.000      -22.40365       2.559320    
   1660.000      -23.76235       2.552493    
   1662.000      -24.87567       2.547956    
   1665.000      -27.01555       2.541175    
   1667.000      -28.92644       2.536669    
   1670.000      -33.20698       2.529947    
   1672.000      -38.12769       2.525515    
   1675.000      -73.58460       35.70464    
   1677.000      -40.07537       34.39635    
   1680.000      -29.71587       32.54874    
   1682.000      -25.84436       31.38865    
   1685.000      -21.82088       29.74878    
   1687.000      -19.84441       28.71817    
   1690.000      -17.55738       27.25992    
   1692.000      -16.36493       26.34269    
   1695.000      -14.94994       25.04361    
   1697.000      -14.20912       24.22574    
   1700.000      -13.34809       23.06635    
   1702.000      -12.92014       22.33576    
   1705.000      -12.47498       21.29919    
   1707.000      -12.30297       20.64542    
   1710.000      -12.23252       19.71701    
   1712.000      -12.31886       19.13095    
   1715.000      -12.68295       18.29798    
   1717.000      -13.12257       17.77171    
   1720.000      -14.22208       17.02308    
   1722.000      -15.44354       16.54970    
   1725.000      -19.16307       15.87575    
   1727.000      -30.79472       15.44923    
   1730.000      -16.83733       30.28536    
   1732.000      -13.61968       29.32185    
   1735.000      -10.66962       27.95380    
   1737.000      -9.291294       27.09036    
   1740.000      -7.717723       25.86335    
   1742.000      -6.894372       25.08827    
   1745.000      -5.897882       23.98590    
   1747.000      -5.356515       23.28897    
   1750.000      -4.687067       22.29693    
   1752.000      -4.318573       21.66923    
   1755.000      -3.860507       20.77503    
   1757.000      -3.608481       20.20878    
   1760.000      -3.297078       19.40147    
   1762.000      -3.127835       18.88984    
   1765.000      -2.922808       18.15984    
   1767.000      -2.814531       17.69684    
   1770.000      -2.688758       17.03573    
   1772.000      -2.626407       16.61611    
   1775.000      -2.560844       16.01649    
   1780.000      -2.514430       15.09097    
   1785.000      -2.531229       14.24934    
   1790.000      -2.597403       13.48293    
   1795.000      -2.702321       12.78407    
   1800.000      -2.837732       12.14595    
   1805.000      -2.997179       11.56255    
   1810.000      -3.175544       11.02853    
   1815.000      -3.369103       10.53911    
   1820.000      -3.574274       10.09008    
   1824.000      -3.745265       9.757376    
   1825.000      -3.788826       9.677646    
   1829.000      -3.965888       9.371777    
   1834.000      -4.192718       9.016966    
   1839.000      -4.424576       8.690187    
   1844.000      -4.660615       8.388969    
   1849.000      -4.900267       8.111098    
   1854.000      -5.143222       7.854586    
   1859.000      -5.389409       7.617646    
   1864.000      -5.639001       7.398672    
   1869.000      -5.892430       7.196218    
   1874.000      -6.150437       7.008980    
   1879.000      -6.414155       6.835785    
   1884.000      -6.685260       6.675573    
   1889.000      -6.966255       6.527384    
   1894.000      -7.260963       6.390361    
   1899.000      -7.575633       6.263721    
   1900.000      -7.641801       6.239577    
   1904.000      -7.921402       6.146759    
   1909.000      -8.321239       6.038839    
   1914.000      -8.836567       5.939386    
   1919.000      -9.788064       5.847882    
   1924.000      -9.720635       7.693234    
   1929.000      -9.298676       7.610663    
   1934.000      -9.182385       7.534849    
   1939.000      -9.165164       7.465451    
   1944.000      -9.197886       7.402164    
   1949.000      -9.260990       7.344718    
   1954.000      -9.344738       7.292869    
   1959.000      -9.443613       7.246405    
   1964.000      -9.554226       7.205140    
   1969.000      -9.674374       7.168911    
   1974.000      -9.802571       7.137581    
   1979.000      -9.937793       7.111032    
   1984.000      -10.07932       7.089170    
   1989.000      -10.22666       7.071919    
   1994.000      -10.37947       7.059222    
   1999.000      -10.53752       7.051042    
   2000.000      -10.56975       7.049946    
   2004.000      -10.70068       7.047359    
   2009.000      -10.86889       7.048172    
   2014.000      -11.04212       7.053496    
   2019.000      -11.22045       7.063366    
   2100.000      -14.97422       7.960470    
   2200.000      -8.664249       11.19019    
   2300.000      -3.090681       11.42242    
   2400.000      -2.470152       10.72539    
   2500.000      -1.913662       10.10373    
   2600.000      -1.514137       9.516127    
   2700.000      -1.193308       8.979425    
   2800.000     -0.9334317       8.487767    
   2900.000     -0.7214494       8.036123    
   3000.000     -0.5472512       7.620162    
   3100.000     -0.4050987       7.235297    
   3200.000     -0.2889408       6.879027    
   3300.000     -0.1942520       6.548557    
   3400.000     -0.1194393       6.241591    
   3500.000     -5.9495863E-02   5.956152    
   3600.000     -1.0572907E-02   5.690217    
   3700.000      2.7909832E-02   5.441919    
   3800.000      5.7566207E-02   5.209708    
   3900.000      7.8086548E-02   4.992338    
   4000.000      9.3767717E-02   4.788559    
   4100.000      0.1006583       4.597276    
   4200.000      0.1041134       4.417420    
   4300.000      0.1056889       4.248122    
   4400.000      0.1039214       4.088510    
   4500.000      9.9291690E-02   3.937847    
   4600.000      9.2209823E-02   3.795467    
   4700.000      8.3026722E-02   3.660767    
   4800.000      7.2043426E-02   3.533195    
   4900.000      5.9518896E-02   3.412252    
   5000.000      4.5676060E-02   3.297480    
   5100.000      3.0707279E-02   3.188462    
   5200.000      1.4778725E-02   3.084814    
   5300.000     -1.9658979E-03   2.986184    
   5400.000     -1.9398676E-02   2.892251    
   5500.000     -3.8380183E-02   2.802740    
   5600.000     -5.6901846E-02   2.717359    
   5700.000     -7.5832658E-02   2.635850    
   5800.000     -9.5102772E-02   2.557981    
   5900.000     -0.1146517       2.483536    
   6000.000     -0.1344274       2.412315    
   6100.000     -0.1543852       2.344132    
   6200.000     -0.1744864       2.278816    
   6300.000     -0.1946983       2.216206    
   6400.000     -0.2149925       2.156153    
   6500.000     -0.2353454       2.098518    
   6600.000     -0.2557368       2.043173    
   6700.000     -0.2761502       1.989996    
   6800.000     -0.2965718       1.938874    
   6900.000     -0.3169903       1.889702    
   7000.000     -0.3373972       1.842381    
   7100.000     -0.3577853       1.796819    
   7200.000     -0.3781485       1.752929    
   7300.000     -0.4024351       1.710697    
   7400.000     -0.4227077       1.670070    
   7500.000     -0.4453575       1.630893    
   7600.000     -0.4655478       1.593164    
   7700.000     -0.4857093       1.556737    
   7800.000     -0.5058432       1.521550    
   7900.000     -0.5259537       1.487549    
   8000.000     -0.5460467       1.454679    
   8100.000     -0.5661284       1.422890    
   8200.000     -0.5862059       1.392135    
   8300.000     -0.6062888       1.362369    
   8400.000     -0.6301875       1.333654    
   8500.000     -0.6503139       1.305877    
   8600.000     -0.6704668       1.278967    
   8700.000     -0.6906570       1.252888    
   8800.000     -0.7108963       1.227605    
   8900.000     -0.7311963       1.203086    
   9000.000     -0.7516914       1.179381    
   9100.000     -0.7722655       1.156382    
   9200.000     -0.7929326       1.134064    
   9300.000     -0.8137084       1.112397    
   9400.000     -0.8346086       1.091357    
   9500.000     -0.8556501       1.070920    
   9600.000     -0.8768508       1.051062    
   9700.000     -0.8982291       1.031761    
   9800.000     -0.9198052       1.012996    
   9900.000     -0.9415997      0.9947482    
   10000.00     -0.9636354      0.9769973    
   10100.00     -0.9859356      0.9597256    
   10200.00      -1.008525      0.9429158    
   10300.00      -1.031432      0.9265512    
   10400.00      -1.054683      0.9106161    
   10500.00      -1.078310      0.8950952    
   10600.00      -1.102346      0.8799743    
   10700.00      -1.126827      0.8652396    
   10800.00      -1.151790      0.8508776    
   10900.00      -1.177277      0.8368760    
   11000.00      -1.203333      0.8232223    
   11100.00      -1.230007      0.8099052    
   11200.00      -1.257352      0.7969135    
   11300.00      -1.285428      0.7842365    
   11400.00      -1.314297      0.7718641    
   11500.00      -1.344032      0.7597862    
   11600.00      -1.374711      0.7479936    
   11700.00      -1.406420      0.7364774    
   11800.00      -1.439259      0.7252287    
   11900.00      -1.473336      0.7142393    
   12000.00      -1.508776      0.7035010    
   12100.00      -1.545717      0.6930063    
   12200.00      -1.584319      0.6827477    
   12300.00      -1.624766      0.6727181    
   12400.00      -1.667269      0.6629107    
   12500.00      -1.712073      0.6533187    
   12600.00      -1.759466      0.6439359    
   12700.00      -1.809789      0.6347563    
   12800.00      -1.863449      0.6257738    
   12900.00      -1.920938      0.6169829    
   13000.00      -1.982857      0.6083779    
   13100.00      -2.049952      0.5999537    
   13200.00      -2.123163      0.5917051    
   13300.00      -2.203701      0.5836273    
   13400.00      -2.293158      0.5757156    
   13500.00      -2.393684      0.5679652    
   13600.00      -2.508283      0.5603718    
   13700.00      -2.641327      0.5529313    
   13800.00      -2.799535      0.5456393    
   13900.00      -2.993988      0.5384920    
   14000.00      -3.244938      0.5314855    
   14100.00      -3.595712      0.5246161    
   14200.00      -4.169905      0.5178801    
   14228.00      -4.421618      0.5160176    
   14233.00      -4.474383      0.5156860    
   14238.00      -4.530175      0.5153548    
   14243.00      -4.589352      0.5150239    
   14248.00      -4.652339      0.5146933    
   14253.00      -4.719648      0.5143630    
   14258.00      -4.791898      0.5140331    
   14263.00      -4.869836      0.5137035    
   14268.00      -4.954447      0.5133742    
   14273.00      -5.046931      0.5130453    
   14278.00      -5.148869      0.5127165    
   14283.00      -5.262368      0.5123882    
   14288.00      -5.390329      0.5120602    
   14293.00      -5.536901      0.5117325    
   14298.00      -5.708315      0.5114051    
   14300.00      -5.785877      0.5112742    
   14303.00      -5.914570      0.5110780    
   14308.00      -6.173192      0.5107513    
   14313.00      -6.519792      0.5104249    
   14318.00      -7.045524      0.5100987    
   14323.00      -8.164400      0.5097729    
   14328.00      -8.256388       3.805611    
   14333.00      -7.070032       3.802841    
   14338.00      -6.524204       3.800076    
   14343.00      -6.164934       3.797314    
   14348.00      -5.896393       3.794558    
   14353.00      -5.681620       3.791806    
   14358.00      -5.502543       3.789057    
   14363.00      -5.348890       3.786314    
   14368.00      -5.214275       3.783574    
   14373.00      -5.094455       3.780839    
   14378.00      -4.986466       3.778108    
   14383.00      -4.888156       3.775382    
   14388.00      -4.797930       3.772660    
   14393.00      -4.714512       3.769942    
   14398.00      -4.636948       3.767228    
   14400.00      -4.607385       3.766144    
   14403.00      -4.564460       3.764519    
   14408.00      -4.496415       3.761814    
   14413.00      -4.432292       3.759113    
   14418.00      -4.371659       3.756416    
   14423.00      -4.314148       3.753724    
   14500.00      -3.673416       3.712790    
   14600.00      -3.168329       3.661074    
   14700.00      -2.819295       3.610935    
   14800.00      -2.552641       3.562311    
   14900.00      -2.337354       3.515145    
   15000.00      -2.157332       3.469382    
   15100.00      -2.003131       3.424970    
   15200.00      -1.868664       3.381860    
   15300.00      -1.749815       3.340003    
   15400.00      -1.643643       3.299356    
   15500.00      -1.547968       3.259873    
   15600.00      -1.461133       3.221514    
   15700.00      -1.381842       3.184240    
   15800.00      -1.309063       3.148013    
   15900.00      -1.241961       3.112798    
   16000.00      -1.179846       3.078558    
   16100.00      -1.122146       3.045262    
   16200.00      -1.068379       3.012878    
   16300.00      -1.018134       2.981377    
   16400.00     -0.9710564       2.950727    
   16500.00     -0.9268417       2.920903    
   16600.00     -0.8852240       2.891877    
   16700.00     -0.8459700       2.863624    
   16800.00     -0.8088744       2.836120    
   16900.00     -0.7737535       2.809340    
   17000.00     -0.7404452       2.783263    
   17100.00     -0.7088040       2.757867    
   17200.00     -0.6786990       2.733131    
   17300.00     -0.6500128       2.709036    
   17400.00     -0.6226373       2.685561    
   17500.00     -0.5964760       2.662688    
   17600.00     -0.5714405       2.640401    
   17700.00     -0.5474499       2.618681    
   17800.00     -0.5244305       2.597513    
   17900.00     -0.5023133       2.576881    
   18000.00     -0.4810360       2.556768    
   18100.00     -0.4605408       2.537162    
   18200.00     -0.4407738       2.518047    
   18300.00     -0.4216858       2.499410    
   18400.00     -0.4032297       2.481239    
   18500.00     -0.3853621       2.463519    
   18600.00     -0.3680346       2.446240    
   18700.00     -0.2623940       2.425711    
   18800.00     -0.2442738       2.404369    
   18900.00     -0.2267956       2.383305    
   19000.00     -0.2099299       2.362513    
   19100.00     -0.1936495       2.341988    
   19200.00     -0.1779292       2.321727    
   19300.00     -0.1627454       2.301724    
   19400.00     -0.1480751       2.281975    
   19500.00     -0.1338976       2.262476    
   19600.00     -0.1201926       2.243222    
   19700.00     -0.1069415       2.224210    
   19800.00     -9.4126344E-02   2.205436    
   19900.00     -8.1729814E-02   2.186894    
   20000.00     -6.9736011E-02   2.168582    
   20100.00     -5.8129635E-02   2.150495    
   20200.00     -4.6896156E-02   2.132630    
   20300.00     -3.6021948E-02   2.114985    
   20400.00     -2.5493443E-02   2.097553    
   20500.00     -1.5298318E-02   2.080332    
   20600.00     -5.4246322E-03   2.063320    
   20700.00      4.1390066E-03   2.046511    
   20800.00      1.3403296E-02   2.029905    
   20900.00      2.2378970E-02   2.013496    
   21000.00      3.1075768E-02   1.997281    
   21100.00      3.9503176E-02   1.981259    
   21200.00      4.7670271E-02   1.965424    
   21300.00      5.5585582E-02   1.949776    
   21400.00      6.3257731E-02   1.934311    
   21500.00      7.0694536E-02   1.919025    
   21600.00      7.7903628E-02   1.903916    
   21700.00      8.4892347E-02   1.888982    
   21800.00      9.1667578E-02   1.874220    
   21900.00      9.8236337E-02   1.859626    
   22000.00      0.1046050       1.845199    
   22100.00      0.1107797       1.830936    
   22200.00      0.1167665       1.816834    
   22300.00      0.1225711       1.802892    
   22400.00      0.1281991       1.789106    
   22500.00      0.1336558       1.775474    
   22600.00      0.1389464       1.761994    
   22700.00      0.1440756       1.748664    
   22800.00      0.1490483       1.735481    
   22900.00      0.1538692       1.722444    
   23000.00      0.1585425       1.709549    
   23100.00      0.1630726       1.696796    
   23200.00      0.1674635       1.684182    
   23300.00      0.1717190       1.671705    
   23400.00      0.1758433       1.659363    
   23500.00      0.1798398       1.647153    
   23600.00      0.1837121       1.635075    
   23700.00      0.1874636       1.623126    
   23800.00      0.1910976       1.611305    
   23900.00      0.1946173       1.599609    
   24000.00      0.1980258       1.588037    
   24100.00      0.2013260       1.576588    
   24200.00      0.2045208       1.565258    
   24300.00      0.2076129       1.554047    
   24400.00      0.2106051       1.542953    
   24500.00      0.2134999       1.531975    
   24600.00      0.2162996       1.521110    
   24700.00      0.2190068       1.510358    
   24800.00      0.2216236       1.499717    
   24900.00      0.2241524       1.489184    
