  Element  3: Li      Atomic mass:    6.9410

Scattering factors as a function of energy: 

   1000.000      5.0583981E-02  3.4388065E-02
   1100.000      4.3752559E-02  2.8248161E-02
   1200.000      3.8239967E-02  2.3570163E-02
   1300.000      3.3724841E-02  1.9929050E-02
   1400.000      2.9978210E-02  1.7043058E-02
   1500.000      2.6833504E-02  1.4719558E-02
   1600.000      2.4167169E-02  1.2823300E-02
   1700.000      2.1885969E-02  1.1257121E-02
   1800.000      1.9918449E-02  9.9498071E-03
   1900.000      1.8209083E-02  8.8482182E-03
   2000.000      1.6714185E-02  7.9120826E-03
   2100.000      1.5398988E-02  7.1104406E-03
   2200.000      1.4235530E-02  6.4191828E-03
   2300.000      1.3201127E-02  5.8193267E-03
   2400.000      1.2277197E-02  5.2957567E-03
   2500.000      1.1443901E-02  4.8364163E-03
   2600.000      1.0697708E-02  4.4313925E-03
   2700.000      1.0023234E-02  4.0726080E-03
   2800.000      9.4114998E-03  3.7534398E-03
   2900.000      8.8548856E-03  3.4683940E-03
   3000.000      8.3469069E-03  3.2128883E-03
   3100.000      7.8814179E-03  2.9863704E-03
   3200.000      7.4545168E-03  2.7819176E-03
   3300.000      7.0620151E-03  2.5968116E-03
   3400.000      6.7002773E-03  2.4287354E-03
   3500.000      6.3661425E-03  2.2757058E-03
   3600.000      6.0568447E-03  2.1360163E-03
   3700.000      5.7699583E-03  2.0081927E-03
   3800.000      5.5033499E-03  1.8909577E-03
   3900.000      5.2551338E-03  1.7831983E-03
   4000.000      5.0236401E-03  1.6839433E-03
   4100.000      4.8073861E-03  1.5923403E-03
   4200.000      4.6050493E-03  1.5076404E-03
   4300.000      4.4154483E-03  1.4291825E-03
   4400.000      4.2375280E-03  1.3563827E-03
   4500.000      4.0703379E-03  1.2887223E-03
   4600.000      3.9130235E-03  1.2257398E-03
   4700.000      3.7648149E-03  1.1670243E-03
   4800.000      3.6250148E-03  1.1122077E-03
   4900.000      3.4929942E-03  1.0609610E-03
   5000.000      3.3681800E-03  1.0129885E-03
   5100.000      3.2500520E-03  9.6802367E-04
   5200.000      3.1381359E-03  9.2582661E-04
   5300.000      3.0319993E-03  8.8618026E-04
   5400.000      2.9312475E-03  8.4888854E-04
   5500.000      2.8355187E-03  8.1377331E-04
   5600.000      2.7444805E-03  7.8067271E-04
   5700.000      2.6578286E-03  7.4943952E-04
   5800.000      2.5752827E-03  7.1993936E-04
   5900.000      2.4965850E-03  6.9204997E-04
   6000.000      2.4214974E-03  6.6565914E-04
   6100.000      2.3498000E-03  6.4066425E-04
   6200.000      2.2812898E-03  6.1697111E-04
   6300.000      2.2157785E-03  5.9449329E-04
   6400.000      2.1530918E-03  5.7315151E-04
   6500.000      2.0930683E-03  5.5287237E-04
   6600.000      2.0355575E-03  5.3358846E-04
   6700.000      1.9804193E-03  5.1523751E-04
   6800.000      1.9275236E-03  4.9776182E-04
   6900.000      1.8767496E-03  4.8110835E-04
   7000.000      1.8279838E-03  4.6522764E-04
   7100.000      1.7811205E-03  4.5007397E-04
   7200.000      1.7360612E-03  4.3560486E-04
   7300.000      1.6927130E-03  4.2178080E-04
   7400.000      1.6509899E-03  4.0856522E-04
   7500.000      1.6108105E-03  3.9592388E-04
   7600.000      1.5720989E-03  3.8382495E-04
   7700.000      1.5347836E-03  3.7223875E-04
   7800.000      1.4987974E-03  3.6113744E-04
   7900.000      1.4640775E-03  3.5049528E-04
   8000.000      1.4305643E-03  3.4028795E-04
   8100.000      1.3982018E-03  3.3049274E-04
   8200.000      1.3669378E-03  3.2108853E-04
   8300.000      1.3367219E-03  3.1205526E-04
   8400.000      1.3075079E-03  3.0337437E-04
   8500.000      1.2792507E-03  2.9502821E-04
   8600.000      1.2519091E-03  2.8700032E-04
   8700.000      1.2254436E-03  2.7927532E-04
   8800.000      1.1998160E-03  2.7183845E-04
   8900.000      1.1749918E-03  2.6467623E-04
   9000.000      1.1510667E-03  2.5789303E-04
   9100.000      1.1278784E-03  2.5135424E-04
   9200.000      1.1053970E-03  2.4504855E-04
   9300.000      1.0835932E-03  2.3896519E-04
   9400.000      1.0624402E-03  2.3309422E-04
   9500.000      1.0419118E-03  2.2742600E-04
   9600.000      1.0219833E-03  2.2195157E-04
   9700.000      1.0026318E-03  2.1666249E-04
   9800.000      9.8383462E-04  2.1155058E-04
   9900.000      9.6557080E-04  2.0660833E-04
   10000.00      9.4781985E-04  2.0182838E-04
   10100.00      9.3056273E-04  1.9720396E-04
   10200.00      9.1378123E-04  1.9272859E-04
   10300.00      8.9745759E-04  1.8839601E-04
   10400.00      8.8157534E-04  1.8420046E-04
   10500.00      8.6611835E-04  1.8013628E-04
   10600.00      8.5107156E-04  1.7619823E-04
   10700.00      8.3642051E-04  1.7238129E-04
   10800.00      8.2215102E-04  1.6868064E-04
   10900.00      8.0825016E-04  1.6509175E-04
   11000.00      7.9470495E-04  1.6161025E-04
   11100.00      7.8150327E-04  1.5823203E-04
   11200.00      7.6863362E-04  1.5495316E-04
   11300.00      7.5608469E-04  1.5176985E-04
   11400.00      7.4384600E-04  1.4867856E-04
   11500.00      7.3190703E-04  1.4567583E-04
   11600.00      7.2025810E-04  1.4275841E-04
   11700.00      7.0888997E-04  1.3992321E-04
   11800.00      6.9779326E-04  1.3716720E-04
   11900.00      6.8695960E-04  1.3448759E-04
   12000.00      6.7638047E-04  1.3188161E-04
   12100.00      6.6604791E-04  1.2934666E-04
   12200.00      6.5595435E-04  1.2688029E-04
   12300.00      6.4609229E-04  1.2448007E-04
   12400.00      6.3645467E-04  1.2214376E-04
   12500.00      6.2703463E-04  1.1986912E-04
   12600.00      6.1782560E-04  1.1765408E-04
   12700.00      6.0882134E-04  1.1549665E-04
   12800.00      6.0001569E-04  1.1339487E-04
   12900.00      5.9140282E-04  1.1134693E-04
   13000.00      5.8297702E-04  1.0935100E-04
   13100.00      5.7473296E-04  1.0740542E-04
   13200.00      5.6666537E-04  1.0550857E-04
   13300.00      5.5876910E-04  1.0365884E-04
   13400.00      5.5103941E-04  1.0185476E-04
   13500.00      5.4347154E-04  1.0009483E-04
   13600.00      5.3606095E-04  9.8377706E-05
   13700.00      5.2880333E-04  9.6702039E-05
   13800.00      5.2169437E-04  9.5066527E-05
   13900.00      5.1473005E-04  9.3469949E-05
   14000.00      5.0790643E-04  9.1911090E-05
   14100.00      5.0121965E-04  9.0388814E-05
   14200.00      4.9466616E-04  8.8902038E-05
   14300.00      4.8824228E-04  8.7449655E-05
   14400.00      4.8194468E-04  8.6030675E-05
   14500.00      4.7576995E-04  8.4644082E-05
   14600.00      4.6971490E-04  8.3288942E-05
   14700.00      4.6377652E-04  8.1964346E-05
   14800.00      4.5795168E-04  8.0669379E-05
   14900.00      4.5223758E-04  7.9403209E-05
   15000.00      4.4663128E-04  7.8165001E-05
   15100.00      4.4113016E-04  7.6953969E-05
   15200.00      4.3573158E-04  7.5769341E-05
   15300.00      4.3043290E-04  7.4610369E-05
   15400.00      4.2523176E-04  7.3476360E-05
   15500.00      4.2012561E-04  7.2366587E-05
   15600.00      4.1511224E-04  7.1280410E-05
   15700.00      4.1018942E-04  7.0217182E-05
   15800.00      4.0535483E-04  6.9176262E-05
   15900.00      4.0060648E-04  6.8157060E-05
   16000.00      3.9594225E-04  6.7158988E-05
   16100.00      3.9136011E-04  6.6181485E-05
   16200.00      3.8685821E-04  6.5223998E-05
   16300.00      3.8243469E-04  6.4286025E-05
   16400.00      3.7808760E-04  6.3367013E-05
   16500.00      3.7381524E-04  6.2466490E-05
   16600.00      3.6961588E-04  6.1583982E-05
   16700.00      3.6548785E-04  6.0719012E-05
   16800.00      3.6142964E-04  5.9871159E-05
   16900.00      3.5743948E-04  5.9039947E-05
   17000.00      3.5351590E-04  5.8224978E-05
   17100.00      3.4965746E-04  5.7425834E-05
   17200.00      3.4586270E-04  5.6642129E-05
   17300.00      3.4213028E-04  5.5873486E-05
   17400.00      3.3845869E-04  5.5119512E-05
   17500.00      3.3484667E-04  5.4379852E-05
   17600.00      3.3129292E-04  5.3654159E-05
   17700.00      3.2779618E-04  5.2942094E-05
   17800.00      3.2435532E-04  5.2243340E-05
   17900.00      3.2096897E-04  5.1557548E-05
   18000.00      3.1763606E-04  5.0884428E-05
   18100.00      3.1435548E-04  5.0223673E-05
   18200.00      3.1112612E-04  4.9574988E-05
   18300.00      3.0794693E-04  4.8938109E-05
   18400.00      3.0481681E-04  4.8312730E-05
   18500.00      3.0173475E-04  4.7698595E-05
   18600.00      2.9869980E-04  4.7095447E-05
   18700.00      2.9571098E-04  4.6503032E-05
   18800.00      2.9276742E-04  4.5921111E-05
   18900.00      2.8986807E-04  4.5349425E-05
   19000.00      2.8701211E-04  4.4787757E-05
   19100.00      2.8419867E-04  4.4235872E-05
   19200.00      2.8142691E-04  4.3693562E-05
   19300.00      2.7869604E-04  4.3160613E-05
   19400.00      2.7600516E-04  4.2636802E-05
   19500.00      2.7335354E-04  4.2121937E-05
   19600.00      2.7074039E-04  4.1615818E-05
   19700.00      2.6816499E-04  4.1118255E-05
   19800.00      2.6562664E-04  4.0629075E-05
   19900.00      2.6312453E-04  4.0148072E-05
   20000.00      2.6065804E-04  3.9675080E-05
   20100.00      2.5822647E-04  3.9209932E-05
   20200.00      2.5582916E-04  3.8752456E-05
   20300.00      2.5346552E-04  3.8302496E-05
   20400.00      2.5113480E-04  3.7859878E-05
   20500.00      2.4883647E-04  3.7424459E-05
   20600.00      2.4656989E-04  3.6996087E-05
   20700.00      2.4433451E-04  3.6574609E-05
   20800.00      2.4212975E-04  3.6159898E-05
   20900.00      2.3995501E-04  3.5751793E-05
   21000.00      2.3780977E-04  3.5350171E-05
   21100.00      2.3569349E-04  3.4954894E-05
   21200.00      2.3360564E-04  3.4565837E-05
   21300.00      2.3154575E-04  3.4182878E-05
   21400.00      2.2951326E-04  3.3805882E-05
   21500.00      2.2750768E-04  3.3434735E-05
   21600.00      2.2552859E-04  3.3069322E-05
   21700.00      2.2357548E-04  3.2709526E-05
   21800.00      2.2164795E-04  3.2355245E-05
   21900.00      2.1974546E-04  3.2006352E-05
   22000.00      2.1786762E-04  3.1662756E-05
   22100.00      2.1601401E-04  3.1324347E-05
   22200.00      2.1418420E-04  3.0991028E-05
   22300.00      2.1237782E-04  3.0662704E-05
   22400.00      2.1059441E-04  3.0339266E-05
   22500.00      2.0883360E-04  3.0020628E-05
   22600.00      2.0709501E-04  2.9706698E-05
   22700.00      2.0537827E-04  2.9397386E-05
   22800.00      2.0368303E-04  2.9092611E-05
   22900.00      2.0200887E-04  2.8792274E-05
   23000.00      2.0035548E-04  2.8496301E-05
   23100.00      1.9872253E-04  2.8204604E-05
   23200.00      1.9710965E-04  2.7917111E-05
   23300.00      1.9551655E-04  2.7633743E-05
   23400.00      1.9394285E-04  2.7354416E-05
   23500.00      1.9238827E-04  2.7079061E-05
   23600.00      1.9085247E-04  2.6807606E-05
   23700.00      1.8933519E-04  2.6539978E-05
   23800.00      1.8783612E-04  2.6276111E-05
   23900.00      1.8635494E-04  2.6015932E-05
   24000.00      1.8489138E-04  2.5759375E-05
   24100.00      1.8344515E-04  2.5506377E-05
   24200.00      1.8201600E-04  2.5256875E-05
   24300.00      1.8060367E-04  2.5010810E-05
   24400.00      1.7920784E-04  2.4768113E-05
   24500.00      1.7782829E-04  2.4528728E-05
   24600.00      1.7646476E-04  2.4292596E-05
   24700.00      1.7511701E-04  2.4059662E-05
   24800.00      1.7378485E-04  2.3829874E-05
   24900.00      1.7035047E-04  2.3604223E-05
