  Element 42: Mo      Atomic mass:   95.9400

  Edge          keV         A
    K        19.9995    0.6199
    L-I       2.8655    4.3268
    L-II      2.6251    4.7230
    L-III     2.5202    4.9196

Scattering factors as a function of energy: 

   1000.000      -6.591399       10.81145    
   1100.000      -6.316616       9.589218    
   1200.000      -6.187851       8.569103    
   1300.000      -6.163280       7.707199    
   1400.000      -6.218771       6.971188    
   1500.000      -6.340117       6.336865    
   1600.000      -6.551459       5.787423    
   1700.000      -6.810370       5.312812    
   1800.000      -7.109578       4.897218    
   1900.000      -7.477355       4.530073    
   2000.000      -7.931921       4.203899    
   2100.000      -8.513156       3.913440    
   2200.000      -9.267358       3.653118    
   2300.000      -10.33210       3.418653    
   2400.000      -12.07554       3.206639    
   2423.000      -12.68548       3.160741    
   2428.000      -12.83668       3.150898    
   2433.000      -12.99608       3.141101    
   2438.000      -13.16460       3.131351    
   2443.000      -13.34339       3.121648    
   2448.000      -13.53374       3.111991    
   2453.000      -13.73729       3.102379    
   2458.000      -13.95603       3.092814    
   2463.000      -14.19244       3.083293    
   2468.000      -14.44967       3.073818    
   2473.000      -14.73185       3.064387    
   2478.000      -15.04445       3.055001    
   2483.000      -15.39507       3.045659    
   2488.000      -15.79451       3.036361    
   2493.000      -16.25916       3.027106    
   2498.000      -16.81535       3.017895    
   2500.000      -17.07283       3.014222    
   2503.000      -17.50991       3.008726    
   2508.000      -18.43863       2.999601    
   2513.000      -19.85462       2.990518    
   2518.000      -23.01433       2.981477    
   2523.000      -22.39423       11.31219    
   2528.000      -19.68493       11.26920    
   2528.000      -19.68493       11.26920    
   2533.000      -18.39511       11.22657    
   2533.000      -18.39511       11.22657    
   2538.000      -17.55426       11.18432    
   2538.000      -17.55426       11.18432    
   2543.000      -16.93974       11.14244    
   2543.000      -16.93974       11.14244    
   2548.000      -16.46377       11.10092    
   2548.000      -16.46377       11.10092    
   2553.000      -16.08292       11.05976    
   2553.000      -16.08292       11.05976    
   2558.000      -15.77267       11.01895    
   2558.000      -15.77267       11.01895    
   2563.000      -15.51818       10.97849    
   2563.000      -15.51818       10.97849    
   2568.000      -15.31006       10.93839    
   2568.000      -15.31006       10.93839    
   2573.000      -15.14243       10.89862    
   2573.000      -15.14243       10.89862    
   2578.000      -15.01186       10.85920    
   2578.000      -15.01186       10.85920    
   2583.000      -14.91698       10.82011    
   2583.000      -14.91698       10.82011    
   2588.000      -14.85835       10.78135    
   2588.000      -14.85835       10.78135    
   2593.000      -14.83886       10.74293    
   2593.000      -14.83886       10.74293    
   2598.000      -14.86464       10.70483    
   2598.000      -14.86464       10.70483    
   2600.000      -14.88993       10.68968    
   2603.000      -14.94718       10.66705    
   2603.000      -14.94718       10.66705    
   2608.000      -15.10854       10.62958    
   2608.000      -15.10854       10.62958    
   2613.000      -15.39571       10.59244    
   2613.000      -15.39571       10.59244    
   2618.000      -15.93586       10.55560    
   2618.000      -15.93586       10.55560    
   2623.000      -17.38039       10.51908    
   2628.000      -16.81148       14.60864    
   2633.000      -15.35047       14.55698    
   2638.000      -14.57271       14.50579    
   2643.000      -14.01698       14.45507    
   2648.000      -13.57487       14.40479    
   2653.000      -13.20311       14.35497    
   2658.000      -12.87986       14.30559    
   2663.000      -12.59245       14.25666    
   2668.000      -12.33291       14.20816    
   2673.000      -12.09580       14.16008    
   2678.000      -11.87731       14.11244    
   2683.000      -11.67458       14.06522    
   2688.000      -11.48546       14.01841    
   2693.000      -11.30825       13.97202    
   2698.000      -11.14164       13.92603    
   2700.000      -11.07770       13.90775    
   2703.000      -10.98451       13.88045    
   2708.000      -10.83599       13.83527    
   2713.000      -10.69532       13.79049    
   2718.000      -10.56190       13.74609    
   2723.000      -10.43520       13.70208    
   2768.000      -9.543033       13.32279    
   2773.000      -9.468041       13.28244    
   2778.000      -9.397628       13.24243    
   2783.000      -9.331848       13.20277    
   2788.000      -9.270802       13.16345    
   2793.000      -9.214656       13.12446    
   2798.000      -9.163642       13.08580    
   2800.000      -9.144746       13.07043    
   2803.000      -9.118093       13.04747    
   2808.000      -9.078446       13.00947    
   2813.000      -9.045310       12.97179    
   2818.000      -9.019497       12.93443    
   2823.000      -9.002139       12.89738    
   2828.000      -8.994826       12.86065    
   2833.000      -8.999876       12.82422    
   2838.000      -9.020820       12.78811    
   2843.000      -9.063376       12.75229    
   2848.000      -9.137692       12.71678    
   2853.000      -9.264405       12.68156    
   2858.000      -9.497022       12.64664    
   2863.000      -10.08392       12.61201    
   2868.000      -10.01231       14.47038    
   2873.000      -9.277638       14.43174    
   2878.000      -8.899899       14.39355    
   2883.000      -8.629189       14.35580    
   2888.000      -8.411434       14.31849    
   2893.000      -8.225678       14.28160    
   2898.000      -8.061521       14.24515    
   2900.000      -8.000491       14.23068    
   2903.000      -7.913048       14.20911    
   2908.000      -7.776562       14.17350    
   2913.000      -7.649570       14.13830    
   2918.000      -7.530336       14.10351    
   2923.000      -7.417571       14.06913    
   2928.000      -7.310315       14.03515    
   2933.000      -7.207807       14.00156    
   2938.000      -7.109456       13.96838    
   2943.000      -7.014769       13.93559    
   2948.000      -6.923353       13.90318    
   2953.000      -6.834865       13.87116    
   2958.000      -6.749030       13.83953    
   2963.000      -6.665593       13.80827    
   3000.000      -6.105614       13.58840    
   3100.000      -4.929305       12.95433    
   3200.000      -4.049282       12.35730    
   3300.000      -3.361908       11.79500    
   3400.000      -2.799444       11.26679    
   3500.000      -2.347744       10.77193    
   3600.000      -1.961566       10.30613    
   3700.000      -1.636650       9.866720    
   3800.000      -1.414647       9.462152    
   3900.000      -1.185110       9.085389    
   4000.000     -0.9882516       8.731192    
   4100.000     -0.8188423       8.397750    
   4200.000     -0.6726855       8.083436    
   4300.000     -0.5476434       7.786798    
   4400.000     -0.4395306       7.506550    
   4500.000     -0.3449481       7.241440    
   4600.000     -0.2631082       6.990362    
   4700.000     -0.1923668       6.752324    
   4800.000     -0.1313276       6.526417    
   4900.000     -7.8799084E-02   6.311816    
   5000.000     -3.3757854E-02   6.107762    
   5100.000      6.9935797E-03   5.913414    
   5200.000      3.9606009E-02   5.728182    
   5300.000      6.8577252E-02   5.551505    
   5400.000      9.1389544E-02   5.382844    
   5500.000      0.1100807       5.221787    
   5600.000      0.1250983       5.067877    
   5700.000      0.1368367       4.920689    
   5800.000      0.1401325       4.780194    
   5900.000      0.1461891       4.645844    
   6000.000      0.1499362       4.517135    
   6100.000      0.1516156       4.393754    
   6200.000      0.1514430       4.275406    
   6300.000      0.1496103       4.161817    
   6400.000      0.1462890       4.052734    
   6500.000      0.1416324       3.947917    
   6600.000      0.1357775       3.847146    
   6700.000      0.1288475       3.750211    
   6800.000      0.1209524       3.656917    
   6900.000      0.1121916       3.567085    
   7000.000      0.1026539       3.480541    
   7100.000      9.2419453E-02   3.397127    
   7200.000      8.1560194E-02   3.316690    
   7300.000      7.0140526E-02   3.239090    
   7400.000      5.3685229E-02   3.164225    
   7500.000      4.1353706E-02   3.091998    
   7600.000      2.8623361E-02   3.022228    
   7700.000      1.2820740E-02   2.954807    
   7800.000     -5.7314889E-04   2.889675    
   7900.000     -1.4242046E-02   2.826683    
   8000.000     -2.8164867E-02   2.765737    
   8100.000     -4.2314734E-02   2.706748    
   8200.000     -5.6667455E-02   2.649634    
   8300.000     -7.1202204E-02   2.594313    
   8400.000     -8.5900381E-02   2.540712    
   8500.000     -0.1007467       2.488758    
   8600.000     -0.1157284       2.438385    
   8700.000     -0.1308358       2.389529    
   8800.000     -0.1460635       2.342129    
   8900.000     -0.1614111       2.296126    
   9000.000     -0.1764281       2.251869    
   9100.000     -0.1914668       2.208900    
   9200.000     -0.2065194       2.167169    
   9300.000     -0.2215791       2.126627    
   9400.000     -0.2366395       2.087230    
   9500.000     -0.2517131       2.048934    
   9600.000     -0.2667613       2.011697    
   9700.000     -0.2817989       1.975482    
   9800.000     -0.2968213       1.940249    
   9900.000     -0.3118255       1.905965    
   10000.00     -0.3268098       1.872593    
   10100.00     -0.3417724       1.840101    
   10200.00     -0.3567120       1.808460    
   10300.00     -0.3716283       1.777638    
   10400.00     -0.3865207       1.747608    
   10500.00     -0.4013894       1.718341    
   10600.00     -0.4162348       1.689813    
   10700.00     -0.4310571       1.661998    
   10800.00     -0.4458575       1.634872    
   10900.00     -0.4606297       1.608413    
   11000.00     -0.4761620       1.582614    
   11100.00     -0.4909239       1.557444    
   11200.00     -0.5056702       1.532878    
   11300.00     -0.5204039       1.508896    
   11400.00     -0.5357637       1.485484    
   11500.00     -0.5504941       1.462634    
   11600.00     -0.5652106       1.440314    
   11700.00     -0.5799221       1.418509    
   11800.00     -0.5946327       1.397203    
   11900.00     -0.6093455       1.376380    
   12000.00     -0.6240644       1.356025    
   12100.00     -0.6387933       1.336125    
   12200.00     -0.6535358       1.316665    
   12300.00     -0.6682966       1.297633    
   12400.00     -0.6830809       1.279016    
   12500.00     -0.6991797       1.260828    
   12600.00     -0.7140412       1.243036    
   12700.00     -0.7289377       1.225626    
   12800.00     -0.7438749       1.208584    
   12900.00     -0.7588578       1.191902    
   13000.00     -0.7738922       1.175568    
   13100.00     -0.7889837       1.159573    
   13200.00     -0.8041381       1.143908    
   13300.00     -0.8193620       1.128563    
   13400.00     -0.8346614       1.113529    
   13500.00     -0.8500434       1.098799    
   13600.00     -0.8655148       1.084364    
   13700.00     -0.8810828       1.070215    
   13800.00     -0.8967552       1.056346    
   13900.00     -0.9125397       1.042749    
   14000.00     -0.9284448       1.029417    
   14100.00     -0.9444790       1.016342    
   14200.00     -0.9606513       1.003519    
   14300.00     -0.9769713      0.9909396    
   14400.00     -0.9934488      0.9785991    
   14500.00      -1.010094      0.9664909    
   14600.00      -1.026919      0.9546090    
   14700.00      -1.043934      0.9429481    
   14800.00      -1.061151      0.9315022    
   14900.00      -1.078584      0.9202664    
   15000.00      -1.096245      0.9092352    
   15100.00      -1.114150      0.8984037    
   15200.00      -1.132313      0.8877672    
   15300.00      -1.150750      0.8773207    
   15400.00      -1.169478      0.8670599    
   15500.00      -1.188516      0.8569802    
   15600.00      -1.207883      0.8470774    
   15700.00      -1.227599      0.8373473    
   15800.00      -1.247687      0.8277858    
   15900.00      -1.268667      0.8183908    
   16000.00      -1.289568      0.8091570    
   16100.00      -1.310917      0.8000803    
   16200.00      -1.332743      0.7911572    
   16300.00      -1.355077      0.7823844    
   16400.00      -1.377955      0.7737581    
   16500.00      -1.401412      0.7652753    
   16600.00      -1.425490      0.7569327    
   16700.00      -1.450232      0.7487271    
   16800.00      -1.475687      0.7406559    
   16900.00      -1.501909      0.7327156    
   17000.00      -1.528954      0.7249036    
   17100.00      -1.556887      0.7172171    
   17200.00      -1.585780      0.7096535    
   17300.00      -1.615710      0.7022101    
   17400.00      -1.646766      0.6948841    
   17500.00      -1.679047      0.6876733    
   17600.00      -1.712663      0.6805751    
   17700.00      -1.747740      0.6735873    
   17800.00      -1.784418      0.6667076    
   17900.00      -1.822863      0.6599334    
   18000.00      -1.863259      0.6532630    
   18100.00      -1.905824      0.6466939    
   18200.00      -1.950808      0.6402243    
   18300.00      -1.998507      0.6338521    
   18400.00      -2.049274      0.6275753    
   18500.00      -2.103528      0.6213918    
   18600.00      -2.161778      0.6153001    
   18700.00      -2.224648      0.6092981    
   18800.00      -2.292915      0.6033843    
   18900.00      -2.367567      0.5975565    
   19000.00      -2.449873      0.5918134    
   19100.00      -2.541516      0.5861533    
   19200.00      -2.644785      0.5805745    
   19300.00      -2.762901      0.5750756    
   19400.00      -2.900613      0.5696548    
   19500.00      -3.065315      0.5643107    
   19600.00      -3.269459      0.5590420    
   19700.00      -3.536528      0.5538471    
   19800.00      -3.919547      0.5487248    
   19900.00      -4.588991      0.5436735    
   19902.00      -4.608744      0.5435731    
   19907.00      -4.659973      0.5433225    
   19912.00      -4.714139      0.5430720    
   19917.00      -4.771545      0.5428218    
   19922.00      -4.832644      0.5425715    
   19927.00      -4.897883      0.5423216    
   19932.00      -4.967879      0.5420719    
   19937.00      -5.043397      0.5418223    
   19942.00      -5.125300      0.5415729    
   19947.00      -5.214820      0.5413235    
   19952.00      -5.313414      0.5410745    
   19957.00      -5.423189      0.5408255    
   19962.00      -5.546861      0.5405768    
   19967.00      -5.688475      0.5403283    
   19972.00      -5.854123      0.5400798    
   19977.00      -6.053358      0.5398316    
   19982.00      -6.303398      0.5395836    
   19987.00      -6.638634      0.5393357    
   19992.00      -7.148751      0.5390880    
   19997.00      -8.247688      0.5388404    
   20000.00      -9.877834       3.697668    
   20002.00      -8.257196       3.696972    
   20007.00      -7.149676       3.695235    
   20012.00      -6.633367       3.693500    
   20017.00      -6.292441       3.691766    
   20022.00      -6.037413       3.690033    
   20027.00      -5.833336       3.688302    
   20032.00      -5.663227       3.686574    
   20037.00      -5.517220       3.684845    
   20042.00      -5.389370       3.683120    
   20047.00      -5.275548       3.681395    
   20052.00      -5.173023       3.679673    
   20057.00      -5.079704       3.677952    
   20062.00      -4.994028       3.676232    
   20067.00      -4.914879       3.674514    
   20072.00      -4.841271       3.672797    
   20077.00      -4.772519       3.671083    
   20082.00      -4.707968       3.669369    
   20087.00      -4.647171       3.667658    
   20092.00      -4.589692       3.665948    
   20097.00      -4.535160       3.664240    
   20100.00      -4.503746       3.663215    
   20200.00      -3.782050       3.629395    
   20300.00      -3.353334       3.596191    
   20400.00      -3.046166       3.563589    
   20500.00      -2.806379       3.531574    
   20600.00      -2.609674       3.500132    
   20700.00      -2.443007       3.469250    
   20800.00      -2.298544       3.438915    
   20900.00      -2.171193       3.409113    
   21000.00      -2.057457       3.379832    
   21100.00      -1.954842       3.351061    
   21200.00      -1.861471       3.322787    
   21300.00      -1.775924       3.294999    
   21400.00      -1.697085       3.267686    
   21500.00      -1.624067       3.240838    
   21600.00      -1.556147       3.214443    
   21700.00      -1.492733       3.188493    
   21800.00      -1.433330       3.162976    
   21900.00      -1.377519       3.137883    
   22000.00      -1.324947       3.113206    
   22100.00      -1.275308       3.088934    
   22200.00      -1.228338       3.065060    
   22300.00      -1.183809       3.041575    
   22400.00      -1.141516       3.018469    
   22500.00      -1.101283       2.995736    
   22600.00      -1.062951       2.973367    
   22700.00      -1.026379       2.951355    
   22800.00     -0.9914415       2.929692    
   22900.00     -0.9580242       2.908370    
   23000.00     -0.9260248       2.887383    
   23100.00     -0.8953503       2.866725    
   23200.00     -0.8659164       2.846387    
   23300.00     -0.8376464       2.826364    
   23400.00     -0.8104689       2.806649    
   23500.00     -0.7843196       2.787236    
   23600.00     -0.7591392       2.768119    
   23700.00     -0.7348729       2.749292    
   23800.00     -0.7114704       2.730749    
   23900.00     -0.6888839       2.712485    
   24000.00     -0.6670705       2.694494    
   24100.00     -0.6459897       2.676771    
   24200.00     -0.6256039       2.659310    
   24300.00     -0.6058782       2.642107    
   24400.00     -0.5867793       2.625157    
   24500.00     -0.5682767       2.608454    
   24600.00     -0.5503417       2.591994    
   24700.00     -0.5329473       2.575773    
   24800.00     -0.5160684       2.559786    
   24900.00     -0.4996805       2.544028    
