   Element 10: Ne      Atomic mass:   20.1790

Scattering factors as a function of energy:

   1000.000      -1.546897       3.586705    
   1100.000     -0.7592142       3.141146    
   1200.000     -0.3114363       2.755257    
   1300.000     -3.1802926E-02   2.421758    
   1400.000      0.1484236       2.133625    
   1500.000      0.1908214       1.893196    
   1600.000      0.2631764       1.702406    
   1700.000      0.3117324       1.538988    
   1800.000      0.3438735       1.397896    
   1900.000      0.3644597       1.275208    
   2000.000      0.3767894       1.167834    
   2100.000      0.3831569       1.073313    
   2200.000      0.3851890      0.9896618    
   2300.000      0.3840579      0.9152703    
   2400.000      0.3806186      0.8488163    
   2500.000      0.3755015      0.7892079    
   2600.000      0.3691739      0.7355353    
   2700.000      0.3619838      0.6870356    
   2800.000      0.3541889      0.6430656    
   2900.000      0.3459758      0.6030794    
   3000.000      0.3374693      0.5666111    
   3100.000      0.3291100      0.5334375    
   3200.000      0.3207462      0.5030252    
   3300.000      0.3124419      0.4750767    
   3400.000      0.3042450      0.4493336    
   3500.000      0.2952795      0.4255943    
   3600.000      0.2872790      0.4036970    
   3700.000      0.2794851      0.3834216    
   3800.000      0.2719087      0.3646118    
   3900.000      0.2645557      0.3471298    
   4000.000      0.2574289      0.3308536    
   4100.000      0.2505284      0.3156751    
   4200.000      0.2438521      0.3014978    
   4300.000      0.2373965      0.2882357    
   4400.000      0.2311572      0.2758121    
   4500.000      0.2251286      0.2641578    
   4600.000      0.2193050      0.2532109    
   4700.000      0.2136801      0.2429155    
   4800.000      0.2082472      0.2332211    
   4900.000      0.2029999      0.2240820    
   5000.000      0.1979315      0.2154568    
   5100.000      0.1930354      0.2073079    
   5200.000      0.1883051      0.1996010    
   5300.000      0.1837343      0.1923049    
   5400.000      0.1793167      0.1853912    
   5500.000      0.1750464      0.1788336    
   5600.000      0.1709175      0.1726085    
   5700.000      0.1669244      0.1666937    
   5800.000      0.1630616      0.1610691    
   5900.000      0.1593241      0.1557163    
   6000.000      0.1557067      0.1506182    
   6100.000      0.1522046      0.1457588    
   6200.000      0.1488133      0.1411238    
   6300.000      0.1455283      0.1366996    
   6400.000      0.1423455      0.1324737    
   6500.000      0.1392608      0.1284346    
   6600.000      0.1362703      0.1245715    
   6700.000      0.1333703      0.1208744    
   6800.000      0.1305574      0.1173341    
   6900.000      0.1278281      0.1139419    
   7000.000      0.1251793      0.1106897    
   7100.000      0.1226078      0.1075701    
   7200.000      0.1201108      0.1045760    
   7300.000      0.1176853      0.1017007    
   7400.000      0.1153288      9.8938279E-02
   7500.000      0.1130386      9.6282870E-02
   7600.000      0.1108123      9.3729086E-02
   7700.000      0.1086476      9.1271870E-02
   7800.000      0.1065422      8.8906474E-02
   7900.000      0.1044939      8.6628452E-02
   8000.000      0.1025008      8.4433585E-02
   8100.000      0.1005608      8.2317933E-02
   8200.000      9.8672062E-02  8.0277793E-02
   8300.000      9.6832767E-02  7.8309640E-02
   8400.000      9.5034733E-02  7.6410234E-02
   8500.000      9.3289390E-02  7.4576385E-02
   8600.000      9.1588534E-02  7.2805174E-02
   8700.000      8.9930661E-02  7.1093827E-02
   8800.000      8.8314280E-02  6.9439687E-02
   8900.000      8.6738035E-02  6.7840301E-02
   9000.000      8.5209906E-02  6.6305742E-02
   9100.000      8.3719686E-02  6.4820923E-02
   9200.000      8.2266130E-02  6.3383751E-02
   9300.000      8.0848016E-02  6.1992206E-02
   9400.000      7.9464212E-02  6.0644433E-02
   9500.000      7.8113593E-02  5.9338603E-02
   9600.000      7.6795109E-02  5.8073036E-02
   9700.000      7.5507753E-02  5.6846119E-02
   9800.000      7.4250512E-02  5.5656292E-02
   9900.000      7.3022477E-02  5.4502118E-02
   10000.00      7.1822725E-02  5.3382181E-02
   10100.00      7.0650384E-02  5.2295167E-02
   10200.00      6.9504634E-02  5.1239830E-02
   10300.00      6.8384640E-02  5.0214943E-02
   10400.00      6.7289665E-02  4.9219377E-02
   10500.00      6.6218928E-02  4.8252031E-02
   10600.00      6.5171719E-02  4.7311865E-02
   10700.00      6.4147361E-02  4.6397891E-02
   10800.00      6.3145168E-02  4.5509145E-02
   10900.00      6.2164519E-02  4.4644736E-02
   11000.00      6.1204769E-02  4.3803778E-02
   11100.00      6.0265332E-02  4.2985454E-02
   11200.00      5.9345644E-02  4.2188972E-02
   11300.00      5.8445126E-02  4.1413564E-02
   11400.00      5.7563260E-02  4.0658515E-02
   11500.00      5.6699514E-02  3.9923113E-02
   11600.00      5.5853397E-02  3.9206702E-02
   11700.00      5.5024434E-02  3.8508654E-02
   11800.00      5.4212142E-02  3.7828334E-02
   11900.00      5.3416084E-02  3.7165176E-02
   12000.00      5.2635815E-02  3.6518600E-02
   12100.00      5.1870916E-02  3.5888072E-02
   12200.00      5.1120993E-02  3.5273079E-02
   12300.00      5.0385639E-02  3.4673117E-02
   12400.00      4.9664482E-02  3.4087710E-02
   12500.00      4.8957143E-02  3.3516396E-02
   12600.00      4.8263274E-02  3.2958735E-02
   12700.00      4.7582537E-02  3.2414306E-02
   12800.00      4.6914585E-02  3.1882692E-02
   12900.00      4.6259105E-02  3.1363510E-02
   13000.00      4.5615781E-02  3.0856371E-02
   13100.00      4.4984303E-02  3.0360918E-02
   13200.00      4.4364396E-02  2.9876804E-02
   13300.00      4.3755759E-02  2.9403683E-02
   13400.00      4.3158121E-02  2.8941238E-02
   13500.00      4.2571217E-02  2.8489148E-02
   13600.00      4.1994784E-02  2.8047115E-02
   13700.00      4.1428577E-02  2.7614852E-02
   13800.00      4.0872343E-02  2.7192071E-02
   13900.00      4.0325858E-02  2.6778508E-02
   14000.00      3.9788883E-02  2.6373895E-02
   14100.00      3.9261196E-02  2.5977982E-02
   14200.00      3.8742587E-02  2.5590533E-02
   14300.00      3.8232841E-02  2.5211301E-02
   14400.00      3.7731756E-02  2.4840070E-02
   14500.00      3.7239134E-02  2.4476610E-02
   14600.00      3.6754780E-02  2.4120716E-02
   14700.00      3.6278512E-02  2.3772186E-02
   14800.00      3.5810146E-02  2.3430813E-02
   14900.00      3.5349511E-02  2.3096416E-02
   15000.00      3.4896426E-02  2.2768801E-02
   15100.00      3.4450728E-02  2.2447791E-02
   15200.00      3.4012258E-02  2.2133220E-02
   15300.00      3.3580858E-02  2.1824909E-02
   15400.00      3.3156373E-02  2.1522706E-02
   15500.00      3.2738652E-02  2.1226447E-02
   15600.00      3.2327551E-02  2.0935982E-02
   15700.00      3.1922936E-02  2.0651169E-02
   15800.00      3.1524662E-02  2.0371854E-02
   15900.00      3.1132596E-02  2.0097911E-02
   16000.00      3.0746607E-02  1.9829197E-02
   16100.00      3.0366568E-02  1.9565584E-02
   16200.00      2.9992355E-02  1.9306948E-02
   16300.00      2.9456828E-02  1.9053496E-02
   16400.00      2.9094240E-02  1.8805994E-02
   16500.00      2.8737182E-02  1.8563092E-02
   16600.00      2.8385516E-02  1.8324681E-02
   16700.00      2.8039129E-02  1.8090652E-02
   16800.00      2.7697923E-02  1.7860904E-02
   16900.00      2.7361779E-02  1.7635329E-02
   17000.00      2.7030602E-02  1.7413829E-02
   17100.00      2.6704296E-02  1.7196311E-02
   17200.00      2.6382763E-02  1.6982678E-02
   17300.00      2.6065916E-02  1.6772848E-02
   17400.00      2.5753651E-02  1.6566722E-02
   17500.00      2.5445882E-02  1.6364219E-02
   17600.00      2.5142526E-02  1.6165257E-02
   17700.00      2.4843497E-02  1.5969753E-02
   17800.00      2.4548717E-02  1.5777636E-02
   17900.00      2.4258094E-02  1.5588821E-02
   18000.00      2.3971554E-02  1.5403235E-02
   18100.00      2.3689020E-02  1.5220810E-02
   18200.00      2.3410417E-02  1.5041472E-02
   18300.00      2.3135677E-02  1.4865160E-02
   18400.00      2.2864716E-02  1.4691798E-02
   18500.00      2.2597473E-02  1.4521327E-02
   18600.00      2.2333875E-02  1.4353682E-02
   18700.00      2.2073857E-02  1.4188805E-02
   18800.00      2.1817360E-02  1.4026636E-02
   18900.00      2.1564309E-02  1.3867114E-02
   19000.00      2.1314645E-02  1.3710183E-02
   19100.00      2.1068310E-02  1.3555790E-02
   19200.00      2.0825243E-02  1.3403882E-02
   19300.00      2.0585388E-02  1.3254409E-02
   19400.00      2.0348683E-02  1.3107314E-02
   19500.00      2.0115072E-02  1.2962551E-02
   19600.00      1.9884506E-02  1.2820072E-02
   19700.00      1.9656926E-02  1.2679829E-02
   19800.00      1.9432290E-02  1.2541780E-02
   19900.00      1.9210534E-02  1.2405876E-02
   20000.00      1.8991614E-02  1.2272074E-02
   20100.00      1.8775478E-02  1.2140334E-02
   20200.00      1.8562082E-02  1.2010612E-02
   20300.00      1.8351374E-02  1.1882871E-02
   20400.00      1.8143253E-02  1.1757069E-02
   20500.00      1.7891156E-02  1.1633240E-02
   20600.00      1.7688403E-02  1.1511343E-02
   20700.00      1.7488219E-02  1.1391272E-02
   20800.00      1.7290518E-02  1.1272993E-02
   20900.00      1.7095251E-02  1.1156467E-02
   21000.00      1.6902376E-02  1.1041662E-02
   21100.00      1.6711857E-02  1.0928545E-02
   21200.00      1.6523652E-02  1.0817084E-02
   21300.00      1.6337728E-02  1.0707250E-02
   21400.00      1.6154042E-02  1.0599006E-02
   21500.00      1.5972557E-02  1.0492326E-02
   21600.00      1.5793242E-02  1.0387179E-02
   21700.00      1.5616059E-02  1.0283538E-02
   21800.00      1.5440979E-02  1.0181377E-02
   21900.00      1.5267963E-02  1.0080662E-02
   22000.00      1.5096977E-02  9.9813705E-03
   22100.00      1.4927994E-02  9.8834755E-03
   22200.00      1.4760980E-02  9.7869514E-03
   22300.00      1.4595907E-02  9.6917758E-03
   22400.00      1.4432740E-02  9.5979190E-03
   22500.00      1.4271451E-02  9.5053613E-03
   22600.00      1.4112012E-02  9.4140768E-03
   22700.00      1.3954393E-02  9.3240449E-03
   22800.00      1.3798570E-02  9.2352433E-03
   22900.00      1.3644511E-02  9.1476468E-03
   23000.00      1.3492189E-02  9.0612378E-03
   23100.00      1.3341581E-02  8.9759929E-03
   23200.00      1.3192657E-02  8.8918926E-03
   23300.00      1.3045399E-02  8.8089183E-03
   23400.00      1.2899773E-02  8.7270476E-03
   23500.00      1.2755760E-02  8.6462628E-03
   23600.00      1.2613334E-02  8.5665453E-03
   23700.00      1.2472472E-02  8.4878765E-03
   23800.00      1.2333154E-02  8.4102396E-03
   23900.00      1.2195352E-02  8.3336150E-03
   24000.00      1.2059045E-02  8.2579860E-03
   24100.00      1.1924213E-02  8.1833368E-03
   24200.00      1.1790833E-02  8.1096496E-03
   24300.00      1.1658889E-02  8.0369106E-03
   24400.00      1.1528352E-02  7.9651000E-03
   24500.00      1.1399208E-02  7.8942059E-03
   24600.00      1.1271433E-02  7.8242105E-03
   24700.00      1.1145010E-02  7.7551012E-03
   24800.00      1.1019921E-02  7.6868637E-03
   24900.00      1.0896144E-02  7.6194806E-03
