  Element 15: P       Atomic mass:   30.9738

  Edge          keV         A
    K         2.1455    5.7788

Scattering factors as a function of energy: 

   1000.000     -0.9093346       1.329363    
   1100.000      -1.009121       1.139840    
   1200.000      -1.112528      0.9890383    
   1300.000      -1.221321      0.8669224    
   1400.000      -1.338480      0.7665395    
   1500.000      -1.468430      0.6829439    
   1600.000      -1.617823      0.6125345    
   1700.000      -1.797341      0.5526360    
   1800.000      -2.025987      0.5012255    
   1900.000      -2.343094      0.4567494    
   2000.000      -2.853962      0.4179971    
   2048.000      -3.264806      0.4011409    
   2053.000      -3.319988      0.3994444    
   2058.000      -3.378511      0.3977587    
   2063.000      -3.440771      0.3960838    
   2068.000      -3.507252      0.3944195    
   2073.000      -3.578521      0.3927658    
   2078.000      -3.655283      0.3911225    
   2083.000      -3.738392      0.3894896    
   2088.000      -3.828931      0.3878670    
   2093.000      -3.928266      0.3862546    
   2098.000      -4.038195      0.3846522    
   2100.000      -4.085635      0.3840141    
   2103.000      -4.161095      0.3830599    
   2108.000      -4.300272      0.3814776    
   2113.000      -4.460432      0.3799051    
   2118.000      -4.648692      0.3783423    
   2123.000      -4.876459      0.3767893    
   2128.000      -5.163908      0.3752458    
   2133.000      -5.551914      0.3737119    
   2138.000      -6.146348      0.3721875    
   2143.000      -7.438367      0.3706724    
   2148.000      -7.423274       4.111696    
   2153.000      -6.097147       4.101726    
   2158.000      -5.473982       4.091725    
   2163.000      -5.059814       4.081692    
   2168.000      -4.747991       4.071630    
   2173.000      -4.497147       4.061538    
   2178.000      -4.286893       4.051417    
   2183.000      -4.105611       4.041268    
   2188.000      -3.946090       4.031092    
   2193.000      -3.803504       4.020889    
   2198.000      -3.674503       4.010661    
   2200.000      -3.626129       4.006562    
   2203.000      -3.556625       4.000407    
   2208.000      -3.448048       3.990129    
   2213.000      -3.347349       3.979827    
   2218.000      -3.253427       3.969502    
   2223.000      -3.165385       3.959154    
   2228.000      -3.082509       3.948785    
   2233.000      -3.004196       3.938394    
   2238.000      -2.929956       3.927984    
   2243.000      -2.859364       3.917553    
   2300.000      -2.231237       3.797445    
   2400.000      -1.531334       3.583364    
   2500.000      -1.066865       3.368473    
   2600.000     -0.7280009       3.156106    
   2700.000     -0.4728401       2.948725    
   2800.000     -0.3866385       2.752452    
   2900.000     -0.2481832       2.602032    
   3000.000     -0.1365549       2.464437    
   3100.000     -4.4013470E-02   2.337136    
   3200.000      3.2265209E-02   2.219424    
   3300.000      9.5536597E-02   2.110349    
   3400.000      0.1482619       2.009076    
   3500.000      0.1923395       1.914870    
   3600.000      0.2287691       1.827092    
   3700.000      0.2596656       1.745170    
   3800.000      0.2855528       1.668581    
   3900.000      0.3072084       1.596869    
   4000.000      0.3252710       1.529624    
   4100.000      0.3402696       1.466482    
   4200.000      0.3526450       1.407113    
   4300.000      0.3613417       1.351236    
   4400.000      0.3694832       1.298737    
   4500.000      0.3759690       1.249207    
   4600.000      0.3810236       1.202426    
   4700.000      0.3848386       1.158192    
   4800.000      0.3875787       1.116322    
   4900.000      0.3893855       1.076651    
   5000.000      0.3903814       1.039025    
   5100.000      0.3906723       1.003307    
   5200.000      0.3903503      0.9693688    
   5300.000      0.3894953      0.9370937    
   5400.000      0.3881773      0.9063749    
   5500.000      0.3864574      0.8771136    
   5600.000      0.3843890      0.8492187    
   5700.000      0.3820192      0.8226064    
   5800.000      0.3793890      0.7971990    
   5900.000      0.3765349      0.7729252    
   6000.000      0.3734887      0.7497182    
   6100.000      0.3702786      0.7275167    
   6200.000      0.3669294      0.7062632    
   6300.000      0.3634632      0.6859047    
   6400.000      0.3598992      0.6663917    
   6500.000      0.3562547      0.6476782    
   6600.000      0.3524290      0.6297214    
   6700.000      0.3486677      0.6124817    
   6800.000      0.3448662      0.5959206    
   6900.000      0.3410349      0.5800035    
   7000.000      0.3371828      0.5646973    
   7100.000      0.3333183      0.5499712    
   7200.000      0.3294482      0.5357965    
   7300.000      0.3255787      0.5221461    
   7400.000      0.3217153      0.5089946    
   7500.000      0.3178624      0.4963182    
   7600.000      0.3140240      0.4840942    
   7700.000      0.3102033      0.4723017    
   7800.000      0.3064029      0.4609206    
   7900.000      0.3026245      0.4499321    
   8000.000      0.2988696      0.4393186    
   8100.000      0.2951383      0.4290633    
   8200.000      0.2914301      0.4191503    
   8300.000      0.2877432      0.4095647    
   8400.000      0.2840738      0.4002925    
   8500.000      0.2804155      0.3913201    
   8600.000      0.2767571      0.3826348    
   8700.000      0.2730794      0.3742249    
   8800.000      0.2693468      0.3660786    
   8900.000      0.2654872      0.3581854    
   9000.000      0.2621758      0.3506286    
   9100.000      0.2589101      0.3433024    
   9200.000      0.2556900      0.3361977    
   9300.000      0.2523696      0.3293057    
   9400.000      0.2492399      0.3226225    
   9500.000      0.2461305      0.3161372    
   9600.000      0.2430669      0.3098419    
   9700.000      0.2400488      0.3037294    
   9800.000      0.2370759      0.2977927    
   9900.000      0.2341478      0.2920251    
   10000.00      0.2312639      0.2864203    
   10100.00      0.2284239      0.2809721    
   10200.00      0.2256271      0.2756749    
   10300.00      0.2228730      0.2705232    
   10400.00      0.2201612      0.2655116    
   10500.00      0.2174908      0.2606352    
   10600.00      0.2148615      0.2558891    
   10700.00      0.2122726      0.2512688    
   10800.00      0.2097235      0.2467699    
   10900.00      0.2072137      0.2423881    
   11000.00      0.2047423      0.2381195    
   11100.00      0.2023090      0.2339602    
   11200.00      0.1999131      0.2299066    
   11300.00      0.1975538      0.2259550    
   11400.00      0.1952308      0.2221022    
   11500.00      0.1929433      0.2183448    
   11600.00      0.1906907      0.2146798    
   11700.00      0.1884725      0.2111041    
   11800.00      0.1862880      0.2076149    
   11900.00      0.1841367      0.2042095    
   12000.00      0.1820180      0.2008852    
   12100.00      0.1799313      0.1976394    
   12200.00      0.1778761      0.1944698    
   12300.00      0.1758518      0.1913739    
   12400.00      0.1738578      0.1883496    
   12500.00      0.1718937      0.1853945    
   12600.00      0.1699588      0.1825068    
   12700.00      0.1680527      0.1796842    
   12800.00      0.1661748      0.1769250    
   12900.00      0.1643247      0.1742272    
   13000.00      0.1625018      0.1715890    
   13100.00      0.1607056      0.1690087    
   13200.00      0.1589358      0.1664847    
   13300.00      0.1571917      0.1640152    
   13400.00      0.1554729      0.1615988    
   13500.00      0.1537790      0.1592340    
   13600.00      0.1521095      0.1569193    
   13700.00      0.1504641      0.1546534    
   13800.00      0.1488421      0.1524348    
   13900.00      0.1472433      0.1502623    
   14000.00      0.1456672      0.1481346    
   14100.00      0.1441134      0.1460505    
   14200.00      0.1425816      0.1440088    
   14300.00      0.1410712      0.1420084    
   14400.00      0.1395819      0.1400483    
   14500.00      0.1381135      0.1381272    
   14600.00      0.1366654      0.1362443    
   14700.00      0.1352373      0.1343985    
   14800.00      0.1338289      0.1325888    
   14900.00      0.1324398      0.1308143    
   15000.00      0.1310697      0.1290742    
   15100.00      0.1297182      0.1273676    
   15200.00      0.1283851      0.1256935    
   15300.00      0.1270700      0.1240512    
   15400.00      0.1257725      0.1224400    
   15500.00      0.1244925      0.1208589    
   15600.00      0.1232295      0.1193074    
   15700.00      0.1219833      0.1177846    
   15800.00      0.1207535      0.1162898    
   15900.00      0.1195400      0.1148225    
   16000.00      0.1183424      0.1133819    
   16100.00      0.1171605      0.1119673    
   16200.00      0.1159939      0.1105783    
   16300.00      0.1148425      0.1092141    
   16400.00      0.1137060      0.1078742    
   16500.00      0.1125841      0.1065580    
   16600.00      0.1114765      0.1052649    
   16700.00      0.1103831      0.1039945    
   16800.00      0.1093035      0.1027462    
   16900.00      0.1082377      0.1015195    
   17000.00      0.1071852      0.1003139    
   17100.00      0.1061460      9.9128954E-02
   17200.00      0.1051198      9.7964182E-02
   17300.00      0.1041063      9.6819147E-02
   17400.00      0.1031054      9.5693380E-02
   17500.00      0.1021169      9.4586469E-02
   17600.00      0.1011406      9.3498006E-02
   17700.00      0.1001762      9.2427589E-02
   17800.00      9.9223554E-02  9.1374837E-02
   17900.00      9.8282501E-02  9.0339340E-02
   18000.00      9.7352847E-02  8.9320734E-02
   18100.00      9.6434399E-02  8.8318668E-02
   18200.00      9.5526986E-02  8.7332785E-02
   18300.00      9.4630443E-02  8.6362757E-02
   18400.00      9.3744569E-02  8.5408226E-02
   18500.00      9.2869200E-02  8.4468879E-02
   18600.00      9.2004187E-02  8.3544388E-02
   18700.00      9.1149360E-02  8.2634464E-02
   18800.00      9.0304568E-02  8.1738815E-02
   18900.00      8.9469634E-02  8.0857106E-02
   19000.00      8.8644408E-02  7.9989083E-02
   19100.00      8.7828755E-02  7.9134457E-02
   19200.00      8.7022513E-02  7.8292966E-02
   19300.00      8.6225562E-02  7.7464357E-02
   19400.00      8.5437730E-02  7.6648340E-02
   19500.00      8.4658884E-02  7.5844683E-02
   19600.00      8.3888888E-02  7.5053133E-02
   19700.00      8.3127610E-02  7.4273452E-02
   19800.00      8.2374938E-02  7.3505431E-02
   19900.00      8.1630707E-02  7.2748810E-02
   20000.00      8.0894805E-02  7.2003379E-02
   20100.00      8.0167107E-02  7.1268916E-02
   20200.00      7.9447493E-02  7.0545219E-02
   20300.00      7.8735851E-02  6.9832087E-02
   20400.00      7.8032047E-02  6.9129296E-02
   20500.00      7.7335961E-02  6.8436667E-02
   20600.00      7.6647498E-02  6.7754000E-02
   20700.00      7.5966537E-02  6.7081109E-02
   20800.00      7.5292975E-02  6.6417821E-02
   20900.00      7.4626692E-02  6.5763943E-02
   21000.00      7.3967583E-02  6.5119296E-02
   21100.00      7.3315553E-02  6.4483725E-02
   21200.00      7.2670497E-02  6.3857056E-02
   21300.00      7.2032325E-02  6.3239135E-02
   21400.00      7.1400918E-02  6.2629782E-02
   21500.00      7.0776187E-02  6.2028851E-02
   21600.00      7.0158035E-02  6.1436191E-02
   21700.00      6.9546379E-02  6.0851652E-02
   21800.00      6.8941124E-02  6.0275104E-02
   21900.00      6.8342164E-02  5.9706379E-02
   22000.00      6.7749433E-02  5.9145346E-02
   22100.00      6.7162827E-02  5.8591872E-02
   22200.00      6.6582263E-02  5.8045823E-02
   22300.00      6.6007674E-02  5.7507083E-02
   22400.00      6.5438956E-02  5.6975495E-02
   22500.00      6.4876035E-02  5.6450952E-02
   22600.00      6.4318828E-02  5.5933330E-02
   22700.00      6.3767262E-02  5.5422511E-02
   22800.00      6.3221276E-02  5.4918382E-02
   22900.00      6.2680759E-02  5.4420818E-02
   23000.00      6.2145654E-02  5.3929709E-02
   23100.00      6.1615888E-02  5.3444948E-02
   23200.00      6.1091386E-02  5.2966431E-02
   23300.00      6.0572091E-02  5.2494057E-02
   23400.00      6.0057912E-02  5.2027710E-02
   23500.00      5.9548791E-02  5.1567290E-02
   23600.00      5.9044655E-02  5.1112708E-02
   23700.00      5.8545448E-02  5.0663862E-02
   23800.00      5.8051102E-02  5.0220668E-02
   23900.00      5.7561547E-02  4.9783014E-02
   24000.00      5.7076715E-02  4.9350820E-02
   24100.00      5.6596555E-02  4.8923995E-02
   24200.00      5.6121003E-02  4.8502453E-02
   24300.00      5.5650007E-02  4.8086118E-02
   24400.00      5.5183485E-02  4.7674887E-02
   24500.00      5.4721396E-02  4.7268685E-02
   24600.00      5.4263681E-02  4.6867438E-02
   24700.00      5.3810280E-02  4.6471063E-02
   24800.00      5.3361148E-02  4.6079487E-02
   24900.00      5.2916210E-02  4.5692626E-02
