  Element 46: Pd      Atomic mass:  106.4200

  Edge          keV         A
    K        24.3503    0.5092
    L-I       3.6043    3.4399
    L-II      3.3303    3.7229
    L-III     3.1733    3.9071

Scattering factors as a function of energy: 

   1000.000      -7.547268       15.92996    
   1100.000      -6.661947       14.20461    
   1200.000      -6.087759       12.73542    
   1300.000      -5.716520       11.47769    
   1400.000      -5.589616       10.40357    
   1500.000      -5.477894       9.482906    
   1600.000      -5.441972       8.681175    
   1700.000      -5.468252       7.978370    
   1800.000      -5.540044       7.358360    
   1900.000      -5.653021       6.808270    
   2000.000      -5.803083       6.317729    
   2100.000      -5.988536       5.878265    
   2200.000      -6.248851       5.486553    
   2300.000      -6.557127       5.136201    
   2400.000      -6.859633       4.820486    
   2500.000      -7.235989       4.533768    
   2600.000      -7.656535       4.272769    
   2700.000      -8.176187       4.034267    
   2800.000      -8.818461       3.816246    
   2900.000      -9.670216       3.615805    
   3000.000      -10.91386       3.431060    
   3076.000      -12.46001       3.302033    
   3081.000      -12.59871       3.293813    
   3086.000      -12.74461       3.285625    
   3091.000      -12.89852       3.277469    
   3096.000      -13.06138       3.269345    
   3100.000      -13.19889       3.262869    
   3101.000      -13.23436       3.261252    
   3106.000      -13.41883       3.253192    
   3111.000      -13.61651       3.245162    
   3116.000      -13.82952       3.237163    
   3121.000      -14.06057       3.229196    
   3126.000      -14.31317       3.221259    
   3131.000      -14.59201       3.213352    
   3136.000      -14.90351       3.205477    
   3141.000      -15.25694       3.197631    
   3146.000      -15.66612       3.189816    
   3151.000      -16.15346       3.182031    
   3156.000      -16.75841       3.174275    
   3161.000      -17.56170       3.166549    
   3166.000      -18.77458       3.158853    
   3171.000      -21.42193       3.151186    
   3176.000      -21.09410       10.26996    
   3181.000      -18.75737       10.27171    
   3186.000      -17.66061       10.27320    
   3191.000      -16.94555       10.27443    
   3196.000      -16.41935       10.27540    
   3200.000      -16.08220       10.27599    
   3201.000      -16.00664       10.27611    
   3206.000      -15.66999       10.27655    
   3211.000      -15.38823       10.27673    
   3216.000      -15.14817       10.27665    
   3221.000      -14.94114       10.27631    
   3226.000      -14.76113       10.27571    
   3231.000      -14.60389       10.27485    
   3233.000      -14.54664       10.27444    
   3236.000      -14.46630       10.27373    
   3238.000      -14.41624       10.27321    
   3241.000      -14.34610       10.27235    
   3243.000      -14.30249       10.27173    
   3246.000      -14.24161       10.27071    
   3248.000      -14.20394       10.26999    
   3251.000      -14.15166       10.26882    
   3253.000      -14.11956       10.26799    
   3256.000      -14.07544       10.26666    
   3258.000      -14.04869       10.26573    
   3261.000      -14.01251       10.26425    
   3263.000      -13.99102       10.26322    
   3266.000      -13.96274       10.26158    
   3268.000      -13.94655       10.26045    
   3271.000      -13.92633       10.25866    
   3273.000      -13.91562       10.25742    
   3278.000      -13.89898       10.25414    
   3283.000      -13.89786       10.25060    
   3288.000      -13.91414       10.24682    
   3293.000      -13.95064       10.24277    
   3298.000      -14.01164       10.23848    
   3300.000      -14.04427       10.23669    
   3303.000      -14.10378       10.23394    
   3308.000      -14.23799       10.22914    
   3313.000      -14.43382       10.22410    
   3318.000      -14.73154       10.21881    
   3323.000      -15.23693       10.21327    
   3328.000      -16.46404       10.20748    
   3333.000      -16.20037       13.77696    
   3338.000      -14.92950       13.77388    
   3343.000      -14.28290       13.77044    
   3348.000      -13.82938       13.76664    
   3353.000      -13.47204       13.76248    
   3358.000      -13.17281       13.75796    
   3363.000      -12.91281       13.75309    
   3368.000      -12.68119       13.74786    
   3373.000      -12.47124       13.74228    
   3378.000      -12.27840       13.73635    
   3383.000      -12.09952       13.73007    
   3388.000      -11.93228       13.72344    
   3393.000      -11.77496       13.71646    
   3398.000      -11.62619       13.70914    
   3400.000      -11.56884       13.70611    
   3403.000      -11.48493       13.70147    
   3408.000      -11.35034       13.69347    
   3413.000      -11.22171       13.68512    
   3418.000      -11.09850       13.67643    
   3423.000      -10.98023       13.66741    
   3428.000      -10.86650       13.65805    
   3500.000      -9.607114       13.48725    
   3507.000      -9.516952       13.46717    
   3512.000      -9.456094       13.45247    
   3517.000      -9.398320       13.43746    
   3522.000      -9.343773       13.42216    
   3527.000      -9.292649       13.40656    
   3532.000      -9.245189       13.39067    
   3537.000      -9.201705       13.37449    
   3542.000      -9.162590       13.35802    
   3547.000      -9.128353       13.34126    
   3552.000      -9.099651       13.32422    
   3557.000      -9.077361       13.30690    
   3562.000      -9.062658       13.28929    
   3567.000      -9.057184       13.27141    
   3572.000      -9.063308       13.25325    
   3577.000      -9.084612       13.23483    
   3582.000      -9.126896       13.21612    
   3587.000      -9.200444       13.19715    
   3592.000      -9.326306       13.17792    
   3597.000      -9.559665       13.15842    
   3600.000      -9.827909       13.14660    
   3602.000      -10.16836       13.13866    
   3607.000      -10.00039       14.98174    
   3612.000      -9.305012       14.95970    
   3617.000      -8.935664       14.93740    
   3622.000      -8.667227       14.91486    
   3627.000      -8.449004       14.89208    
   3632.000      -8.261131       14.86905    
   3637.000      -8.093699       14.84579    
   3642.000      -7.941078       14.82228    
   3647.000      -7.799720       14.79854    
   3652.000      -7.667282       14.77457    
   3657.000      -7.542096       14.75037    
   3662.000      -7.422966       14.72594    
   3667.000      -7.308975       14.70129    
   3672.000      -7.199431       14.67641    
   3677.000      -7.093771       14.65132    
   3682.000      -6.991563       14.62600    
   3687.000      -6.892433       14.60047    
   3692.000      -6.796091       14.57473    
   3697.000      -6.702277       14.54877    
   3700.000      -6.647115       14.53310    
   3702.000      -6.610787       14.52261    
   3800.000      -5.125007       13.97143    
   3900.000      -3.970709       13.34670    
   4000.000      -3.050324       12.67780    
   4100.000      -2.313469       11.98215    
   4200.000      -2.625012       11.43588    
   4300.000      -2.186286       10.95300    
   4400.000      -2.216123       10.54749    
   4500.000      -1.923639       10.18789    
   4600.000      -1.669173       9.847227    
   4700.000      -1.432978       9.523765    
   4800.000      -1.236161       9.214001    
   4900.000      -1.062843       8.919193    
   5000.000     -0.9098278       8.638379    
   5100.000     -0.7744679       8.370672    
   5200.000     -0.6545470       8.115259    
   5300.000     -0.5481927       7.871386    
   5400.000     -0.4538120       7.638360    
   5500.000     -0.3700381       7.415538    
   5600.000     -0.2956929       7.202325    
   5700.000     -0.2297547       6.998170    
   5800.000     -0.1713331       6.802559    
   5900.000     -0.1196498       6.615019    
   6000.000     -7.4020073E-02   6.435105    
   6100.000     -3.3840429E-02   6.262406    
   6200.000      1.4230805E-03   6.096535    
   6300.000      3.1089567E-02   5.937139    
   6400.000      5.0879266E-02   5.784173    
   6500.000      7.4037440E-02   5.637283    
   6600.000      9.3924217E-02   5.495913    
   6700.000      0.1068765       5.359913    
   6800.000      0.1210492       5.229092    
   6900.000      0.1327801       5.103010    
   7000.000      0.1422860       4.981436    
   7100.000      0.1497621       4.864154    
   7200.000      0.1553849       4.750963    
   7300.000      0.1528909       4.642115    
   7400.000      0.1551526       4.537039    
   7500.000      0.1560258       4.435522    
   7600.000      0.1556291       4.337403    
   7700.000      0.1540701       4.242530    
   7800.000      0.1514463       4.150760    
   7900.000      0.1478464       4.061957    
   8000.000      0.1433507       3.975995    
   8100.000      0.1380321       3.892750    
   8200.000      0.1319565       3.812109    
   8300.000      0.1251831       3.733962    
   8400.000      0.1177655       3.658208    
   8500.000      0.1097508       3.584748    
   8600.000      0.1011806       3.513489    
   8700.000      9.2090599E-02   3.444345    
   8800.000      8.2509860E-02   3.377230    
   8900.000      7.2460800E-02   3.312066    
   9000.000      6.2621608E-02   3.249214    
   9100.000      5.2482963E-02   3.188166    
   9200.000      4.2073201E-02   3.128853    
   9300.000      3.1418052E-02   3.071208    
   9400.000      2.0541511E-02   3.015170    
   9500.000      9.4652139E-03   2.960676    
   9600.000     -1.7906786E-03   2.907671    
   9700.000     -1.3207623E-02   2.856101    
   9800.000     -2.4768839E-02   2.805912    
   9900.000     -3.6457945E-02   2.757055    
   10000.00     -4.8828870E-02   2.709485    
   10100.00     -6.0764819E-02   2.663161    
   10200.00     -7.2795205E-02   2.618036    
   10300.00     -8.4902905E-02   2.574065    
   10400.00     -9.7077258E-02   2.531211    
   10500.00     -0.1098789       2.489434    
   10600.00     -0.1221056       2.448706    
   10700.00     -0.1344481       2.408986    
   10800.00     -0.1468249       2.370239    
   10900.00     -0.1592294       2.332435    
   11000.00     -0.1716561       2.295541    
   11100.00     -0.1840999       2.259528    
   11200.00     -0.1965558       2.224370    
   11300.00     -0.2090199       2.190037    
   11400.00     -0.2214884       2.156504    
   11500.00     -0.2339579       2.123746    
   11600.00     -0.2464256       2.091740    
   11700.00     -0.2588885       2.060462    
   11800.00     -0.2713446       2.029889    
   11900.00     -0.2837917       2.000000    
   12000.00     -0.2962282       1.970776    
   12100.00     -0.3086526       1.942195    
   12200.00     -0.3210635       1.914240    
   12300.00     -0.3334602       1.886891    
   12400.00     -0.3458416       1.860131    
   12500.00     -0.3582077       1.833943    
   12600.00     -0.3706809       1.808311    
   12700.00     -0.3830182       1.783220    
   12800.00     -0.3953367       1.758654    
   12900.00     -0.4076386       1.734597    
   13000.00     -0.4199244       1.711036    
   13100.00     -0.4321944       1.687957    
   13200.00     -0.4444490       1.665347    
   13300.00     -0.4566892       1.643193    
   13400.00     -0.4689154       1.621483    
   13500.00     -0.4811289       1.600204    
   13600.00     -0.4933309       1.579345    
   13700.00     -0.5055245       1.558896    
   13800.00     -0.5191082       1.538859    
   13900.00     -0.5312875       1.519227    
   14000.00     -0.5434561       1.499972    
   14100.00     -0.5556182       1.481085    
   14200.00     -0.5677752       1.462557    
   14300.00     -0.5799294       1.444378    
   14400.00     -0.5920825       1.426539    
   14500.00     -0.6054318       1.409050    
   14600.00     -0.6175894       1.391891    
   14700.00     -0.6297508       1.375048    
   14800.00     -0.6419185       1.358513    
   14900.00     -0.6540945       1.342277    
   15000.00     -0.6662812       1.326335    
   15100.00     -0.6784811       1.310677    
   15200.00     -0.6906964       1.295299    
   15300.00     -0.7029300       1.280193    
   15400.00     -0.7151844       1.265352    
   15500.00     -0.7274631       1.250770    
   15600.00     -0.7397805       1.236442    
   15700.00     -0.7540373       1.222391    
   15800.00     -0.7664136       1.208589    
   15900.00     -0.7788228       1.195024    
   16000.00     -0.7912695       1.181688    
   16100.00     -0.8037571       1.168578    
   16200.00     -0.8162890       1.155688    
   16300.00     -0.8288687       1.143013    
   16400.00     -0.8415002       1.130548    
   16500.00     -0.8541871       1.118290    
   16600.00     -0.8669332       1.106232    
   16700.00     -0.8797427       1.094371    
   16800.00     -0.8926196       1.082702    
   16900.00     -0.9055684       1.071221    
   17000.00     -0.9185936       1.059925    
   17100.00     -0.9316999       1.048808    
   17200.00     -0.9448919       1.037868    
   17300.00     -0.9581745       1.027101    
   17400.00     -0.9715533       1.016502    
   17500.00     -0.9850336       1.006068    
   17600.00     -0.9986210      0.9957964    
   17700.00      -1.012321      0.9856830    
   17800.00      -1.026140      0.9757250    
   17900.00      -1.040085      0.9659187    
   18000.00      -1.054161      0.9562613    
   18100.00      -1.068377      0.9467497    
   18200.00      -1.082739      0.9373810    
   18300.00      -1.097254      0.9281524    
   18400.00      -1.111931      0.9190607    
   18500.00      -1.126778      0.9101035    
   18600.00      -1.141804      0.9012780    
   18700.00      -1.157019      0.8925816    
   18800.00      -1.172430      0.8840120    
   18900.00      -1.188049      0.8755664    
   19000.00      -1.203887      0.8672425    
   19100.00      -1.219955      0.8590379    
   19200.00      -1.236265      0.8509504    
   19300.00      -1.252828      0.8429778    
   19400.00      -1.269660      0.8351176    
   19500.00      -1.286774      0.8273680    
   19600.00      -1.304185      0.8197268    
   19700.00      -1.321909      0.8121919    
   19800.00      -1.339963      0.8047615    
   19900.00      -1.358365      0.7974334    
   20000.00      -1.377136      0.7902059    
   20100.00      -1.396295      0.7830770    
   20200.00      -1.415865      0.7760450    
   20300.00      -1.435870      0.7691082    
   20400.00      -1.456336      0.7622647    
   20500.00      -1.477291      0.7555128    
   20600.00      -1.498764      0.7488509    
   20700.00      -1.520787      0.7422776    
   20800.00      -1.543397      0.7357911    
   20900.00      -1.566631      0.7293898    
   21000.00      -1.590532      0.7230724    
   21100.00      -1.615144      0.7168372    
   21200.00      -1.640517      0.7106829    
   21300.00      -1.666707      0.7046083    
   21400.00      -1.693773      0.6986116    
   21500.00      -1.721782      0.6926916    
   21600.00      -1.750809      0.6868471    
   21700.00      -1.780935      0.6810767    
   21800.00      -1.812253      0.6753793    
   21900.00      -1.844865      0.6697534    
   22000.00      -1.878889      0.6641980    
   22100.00      -1.914456      0.6587118    
   22200.00      -1.951717      0.6532937    
   22300.00      -1.990842      0.6479427    
   22400.00      -2.032033      0.6426573    
   22500.00      -2.075517      0.6374368    
   22600.00      -2.121566      0.6322799    
   22700.00      -2.170496      0.6271857    
   22800.00      -2.222685      0.6221532    
   22900.00      -2.278592      0.6171812    
   23000.00      -2.338771      0.6122689    
   23100.00      -2.403907      0.6074153    
   23200.00      -2.474861      0.6026193    
   23300.00      -2.553448      0.5978819    
   23400.00      -2.639666      0.5932006    
   23500.00      -2.736155      0.5885743    
   23600.00      -2.845569      0.5840023    
   23700.00      -2.971720      0.5794834    
   23800.00      -3.120357      0.5750171    
   23900.00      -3.300757      0.5706024    
   24000.00      -3.529313      0.5662385    
   24100.00      -3.839361      0.5619246    
   24200.00      -4.317266      0.5576600    
   24253.00      -4.730181      0.5554196    
   24258.00      -4.780540      0.5552089    
   24263.00      -4.833782      0.5549983    
   24268.00      -4.890203      0.5547879    
   24273.00      -4.950250      0.5545776    
   24278.00      -5.014359      0.5543674    
   24283.00      -5.083168      0.5541573    
   24288.00      -5.157347      0.5539474    
   24293.00      -5.237827      0.5537376    
   24298.00      -5.325797      0.5535279    
   24300.00      -5.363367      0.5534441    
   24303.00      -5.422692      0.5533183    
   24308.00      -5.530597      0.5531088    
   24313.00      -5.652196      0.5528995    
   24318.00      -5.791554      0.5526902    
   24323.00      -5.954550      0.5524811    
   24328.00      -6.150872      0.5522722    
   24333.00      -6.397691      0.5520633    
   24338.00      -6.729667      0.5518546    
   24343.00      -7.238419      0.5516459    
   24348.00      -8.366171      0.5514374    
   24353.00      -8.219122       3.632562    
   24358.00      -7.188938       3.631189    
   24363.00      -6.695829       3.629816    
   24368.00      -6.368249       3.628445    
   24373.00      -6.122331       3.627075    
   24378.00      -5.925203       3.625706    
   24383.00      -5.760712       3.624339    
   24388.00      -5.619430       3.622973    
   24393.00      -5.495659       3.621609    
   24398.00      -5.385434       3.620245    
   24400.00      -5.344545       3.619701    
   24403.00      -5.286128       3.618884    
   24408.00      -5.195693       3.617523    
   24413.00      -5.112720       3.616164    
   24418.00      -5.036033       3.614806    
   24423.00      -4.964714       3.613450    
   24428.00      -4.898098       3.612095    
   24433.00      -4.835554       3.610741    
   24438.00      -4.776650       3.609388    
   24443.00      -4.720940       3.608037    
   24448.00      -4.668130       3.606687    
   24500.00      -4.237199       3.592727    
   24600.00      -3.715423       3.566278    
   24700.00      -3.368468       3.540340    
   24800.00      -3.107569       3.514903    
   24900.00      -2.898240       3.489954    
