  Element 45: Rh      Atomic mass:  102.9055

  Edge          keV         A
    K        23.2199    0.5340
    L-I       3.4119    3.6339
    L-II      3.1461    3.9409
    L-III     3.0038    4.1276

Scattering factors as a function of energy: 

   1000.000      -7.101655       14.50493    
   1100.000      -6.426809       12.91092    
   1200.000      -5.982980       11.55928    
   1300.000      -5.804556       10.41600    
   1400.000      -5.674335       9.442636    
   1500.000      -5.628779       8.602312    
   1600.000      -5.650738       7.871156    
   1700.000      -5.723420       7.230370    
   1800.000      -5.841033       6.665165    
   1900.000      -5.999276       6.163774    
   2000.000      -6.238095       5.717567    
   2100.000      -6.503277       5.323274    
   2200.000      -6.785703       4.971879    
   2300.000      -7.118780       4.654998    
   2400.000      -7.515037       4.368124    
   2500.000      -7.994919       4.107481    
   2600.000      -8.605175       3.871055    
   2700.000      -9.386759       3.655046    
   2800.000      -10.49272       3.457026    
   2900.000      -12.34938       3.275002    
   2906.000      -12.51122       3.264551    
   2911.000      -12.65354       3.255880    
   2916.000      -12.80338       3.247245    
   2921.000      -12.96161       3.238645    
   2926.000      -13.12924       3.230079    
   2931.000      -13.30748       3.221548    
   2936.000      -13.49780       3.213052    
   2941.000      -13.70201       3.204590    
   2946.000      -13.92237       3.196161    
   2951.000      -14.16171       3.187767    
   2956.000      -14.42377       3.179406    
   2961.000      -14.71348       3.171079    
   2966.000      -15.03762       3.162786    
   2971.000      -15.40584       3.154525    
   2976.000      -15.83265       3.146297    
   2981.000      -16.34118       3.138103    
   2986.000      -16.97200       3.129940    
   2991.000      -17.80636       3.121810    
   2996.000      -19.05048       3.113713    
   3000.000      -20.84454       3.107258    
   3001.000      -21.60383       3.105672    
   3006.000      -22.22420       10.89013    
   3011.000      -19.29791       10.86728    
   3016.000      -18.01095       10.84445    
   3021.000      -17.18435       10.82163    
   3026.000      -16.58029       10.79882    
   3031.000      -16.10872       10.77602    
   3036.000      -15.72569       10.75324    
   3041.000      -15.40657       10.73048    
   3046.000      -15.13614       10.70772    
   3049.000      -14.99297       10.69408    
   3051.000      -14.90446       10.68499    
   3054.000      -14.78114       10.67135    
   3056.000      -14.70473       10.66226    
   3059.000      -14.59816       10.64864    
   3061.000      -14.53214       10.63956    
   3064.000      -14.44015       10.62594    
   3066.000      -14.38327       10.61687    
   3069.000      -14.30429       10.60326    
   3071.000      -14.25569       10.59419    
   3074.000      -14.18863       10.58059    
   3076.000      -14.14771       10.57153    
   3079.000      -14.09186       10.55794    
   3081.000      -14.05826       10.54889    
   3084.000      -14.01324       10.53531    
   3086.000      -13.98682       10.52626    
   3089.000      -13.95257       10.51270    
   3091.000      -13.93339       10.50365    
   3094.000      -13.91019       10.49010    
   3096.000      -13.89854       10.48106    
   3099.000      -13.88704       10.46752    
   3100.000      -13.88486       10.46301    
   3101.000      -13.88353       10.45849    
   3104.000      -13.88489       10.44496    
   3109.000      -13.90655       10.42241    
   3114.000      -13.95649       10.39989    
   3119.000      -14.04182       10.37738    
   3124.000      -14.17443       10.35489    
   3129.000      -14.37586       10.33242    
   3134.000      -14.69094       10.30997    
   3139.000      -15.23940       10.28755    
   3144.000      -16.63240       10.26514    
   3149.000      -16.13725       14.10948    
   3154.000      -14.80449       14.08020    
   3159.000      -14.10704       14.05095    
   3164.000      -13.61399       14.02170    
   3169.000      -13.22450       13.99247    
   3174.000      -12.89836       13.96325    
   3179.000      -12.61542       13.93405    
   3184.000      -12.36404       13.90486    
   3189.000      -12.13696       13.87569    
   3194.000      -11.92924       13.84653    
   3199.000      -11.73743       13.81740    
   3200.000      -11.70074       13.81157    
   3204.000      -11.55899       13.78827    
   3209.000      -11.39199       13.75917    
   3214.000      -11.23497       13.73008    
   3219.000      -11.08672       13.70101    
   3224.000      -10.94632       13.67196    
   3229.000      -10.81297       13.64293    
   3234.000      -10.68605       13.61392    
   3239.000      -10.56501       13.58493    
   3244.000      -10.44942       13.55596    
   3300.000      -9.445956       13.23296    
   3314.000      -9.265326       13.15268    
   3319.000      -9.207327       13.12405    
   3324.000      -9.152866       13.09545    
   3329.000      -9.102059       13.06688    
   3334.000      -9.055073       13.03833    
   3339.000      -9.012127       13.00981    
   3344.000      -8.973499       12.98131    
   3349.000      -8.939561       12.95285    
   3354.000      -8.910786       12.92441    
   3359.000      -8.887802       12.89600    
   3364.000      -8.871438       12.86762    
   3369.000      -8.862823       12.83926    
   3374.000      -8.863525       12.81094    
   3379.000      -8.875802       12.78264    
   3384.000      -8.903061       12.75438    
   3389.000      -8.950767       12.72614    
   3394.000      -9.028508       12.69793    
   3399.000      -9.155489       12.66976    
   3400.000      -9.190023       12.66413    
   3404.000      -9.380177       12.64161    
   3409.000      -9.910168       12.61350    
   3414.000      -10.03818       14.45937    
   3419.000      -9.246167       14.42922    
   3424.000      -8.864408       14.39910    
   3429.000      -8.595590       14.36902    
   3434.000      -8.381170       14.33899    
   3439.000      -8.199121       14.30899    
   3444.000      -8.038685       14.27904    
   3449.000      -7.893826       14.24913    
   3454.000      -7.760778       14.21925    
   3459.000      -7.637055       14.18942    
   3464.000      -7.520922       14.15963    
   3469.000      -7.411101       14.12989    
   3474.000      -7.306652       14.10018    
   3479.000      -7.206831       14.07052    
   3484.000      -7.111070       14.04090    
   3489.000      -7.018894       14.01132    
   3494.000      -6.929934       13.98179    
   3499.000      -6.843866       13.95229    
   3500.000      -6.826978       13.94640    
   3504.000      -6.760436       13.92285    
   3509.000      -6.679410       13.89344    
   3600.000      -5.483099       13.36602    
   3700.000      -4.519121       12.80409    
   3800.000      -3.765443       12.26151    
   3900.000      -3.156826       11.73885    
   4000.000      -2.827380       11.27740    
   4100.000      -2.493528       10.84357    
   4200.000      -2.152440       10.44976    
   4300.000      -1.859147       10.07855    
   4400.000      -1.605099       9.728267    
   4500.000      -1.359932       9.393935    
   4600.000      -1.164367       9.075114    
   4700.000     -0.9929653       8.772368    
   4800.000     -0.8423657       8.484616    
   4900.000     -0.7097921       8.210873    
   5000.000     -0.5929259       7.950227    
   5100.000     -0.4898150       7.701844    
   5200.000     -0.3988023       7.464957    
   5300.000     -0.3184712       7.238855    
   5400.000     -0.2476044       7.022888    
   5500.000     -0.1851486       6.816450    
   5600.000     -0.1301886       6.618980    
   5700.000     -8.1926011E-02   6.429961    
   5800.000     -4.0897600E-02   6.248923    
   5900.000     -5.2195983E-03   6.075442    
   6000.000      2.6869984E-02   5.909082    
   6100.000      4.9408600E-02   5.749874    
   6200.000      7.3182464E-02   5.597054    
   6300.000      9.0000339E-02   5.450271    
   6400.000      0.1070324       5.309464    
   6500.000      0.1212029       5.174058    
   6600.000      0.1327797       5.043777    
   6700.000      0.1420029       4.918362    
   6800.000      0.1490880       4.797568    
   6900.000      0.1482728       4.681533    
   7000.000      0.1515260       4.569803    
   7100.000      0.1531988       4.462062    
   7200.000      0.1534336       4.358120    
   7300.000      0.1523586       4.257800    
   7400.000      0.1500900       4.160931    
   7500.000      0.1467331       4.067357    
   7600.000      0.1423829       3.976927    
   7700.000      0.1371255       3.889501    
   7800.000      0.1310386       3.804945    
   7900.000      0.1241922       3.723134    
   8000.000      0.1166493       3.643949    
   8100.000      0.1084658       3.567277    
   8200.000      9.9691279E-02   3.493013    
   8300.000      9.0368077E-02   3.421055    
   8400.000      8.0531500E-02   3.351308    
   8500.000      7.0207708E-02   3.283681    
   8600.000      5.9411652E-02   3.218088    
   8700.000      4.8141148E-02   3.154449    
   8800.000      3.6364235E-02   3.092685    
   8900.000      2.3990842E-02   3.032723    
   9000.000      1.2541885E-02   2.974944    
   9100.000      8.8538311E-04   2.918829    
   9200.000     -1.0956469E-02   2.864314    
   9300.000     -2.2961335E-02   2.811336    
   9400.000     -3.5379406E-02   2.759842    
   9500.000     -4.7708768E-02   2.709774    
   9600.000     -6.0151376E-02   2.661080    
   9700.000     -7.2693519E-02   2.613708    
   9800.000     -8.5599445E-02   2.567611    
   9900.000     -9.8334245E-02   2.522748    
   10000.00     -0.1111250       2.479068    
   10100.00     -0.1239688       2.436532    
   10200.00     -0.1368572       2.395100    
   10300.00     -0.1497826       2.354731    
   10400.00     -0.1627377       2.315391    
   10500.00     -0.1757164       2.277044    
   10600.00     -0.1887128       2.239655    
   10700.00     -0.2017215       2.203194    
   10800.00     -0.2147383       2.167629    
   10900.00     -0.2277588       2.132931    
   11000.00     -0.2407794       2.099071    
   11100.00     -0.2537969       2.066022    
   11200.00     -0.2668083       2.033759    
   11300.00     -0.2798114       2.002255    
   11400.00     -0.2928037       1.971488    
   11500.00     -0.3057839       1.941433    
   11600.00     -0.3187503       1.912070    
   11700.00     -0.3317014       1.883376    
   11800.00     -0.3447363       1.855331    
   11900.00     -0.3576566       1.827917    
   12000.00     -0.3705599       1.801113    
   12100.00     -0.3834457       1.774901    
   12200.00     -0.3963138       1.749265    
   12300.00     -0.4091646       1.724186    
   12400.00     -0.4219981       1.699648    
   12500.00     -0.4348151       1.675637    
   12600.00     -0.4476160       1.652136    
   12700.00     -0.4604016       1.629131    
   12800.00     -0.4731729       1.606609    
   12900.00     -0.4859309       1.584555    
   13000.00     -0.4986768       1.562956    
   13100.00     -0.5126737       1.541825    
   13200.00     -0.5254055       1.521129    
   13300.00     -0.5381289       1.500852    
   13400.00     -0.5508451       1.480983    
   13500.00     -0.5635565       1.461510    
   13600.00     -0.5762665       1.442423    
   13700.00     -0.5900362       1.423728    
   13800.00     -0.6027479       1.405406    
   13900.00     -0.6154613       1.387439    
   14000.00     -0.6281795       1.369820    
   14100.00     -0.6409050       1.352538    
   14200.00     -0.6536401       1.335585    
   14300.00     -0.6663878       1.318953    
   14400.00     -0.6791506       1.302633    
   14500.00     -0.6919317       1.286617    
   14600.00     -0.7047339       1.270898    
   14700.00     -0.7175609       1.255469    
   14800.00     -0.7322060       1.240328    
   14900.00     -0.7451120       1.225494    
   15000.00     -0.7580412       1.210928    
   15100.00     -0.7710065       1.196624    
   15200.00     -0.7840117       1.182576    
   15300.00     -0.7970608       1.168778    
   15400.00     -0.8101576       1.155224    
   15500.00     -0.8233063       1.141907    
   15600.00     -0.8365110       1.128823    
   15700.00     -0.8497758       1.115966    
   15800.00     -0.8631054       1.103330    
   15900.00     -0.8765043       1.090911    
   16000.00     -0.8899774       1.078703    
   16100.00     -0.9035296       1.066702    
   16200.00     -0.9171661       1.054902    
   16300.00     -0.9308919       1.043301    
   16400.00     -0.9447131       1.031891    
   16500.00     -0.9586352       1.020671    
   16600.00     -0.9726642       1.009635    
   16700.00     -0.9868065      0.9987791    
   16800.00      -1.001068      0.9880999    
   16900.00      -1.015457      0.9775931    
   17000.00      -1.029979      0.9672551    
   17100.00      -1.044643      0.9570822    
   17200.00      -1.059455      0.9470708    
   17300.00      -1.074424      0.9372179    
   17400.00      -1.089559      0.9275195    
   17500.00      -1.104868      0.9179727    
   17600.00      -1.120362      0.9085742    
   17700.00      -1.136049      0.8993209    
   17800.00      -1.151940      0.8902100    
   17900.00      -1.168047      0.8812383    
   18000.00      -1.184380      0.8724029    
   18100.00      -1.200953      0.8637012    
   18200.00      -1.217777      0.8551305    
   18300.00      -1.234867      0.8466882    
   18400.00      -1.252238      0.8383714    
   18500.00      -1.269904      0.8301778    
   18600.00      -1.287882      0.8221050    
   18700.00      -1.306190      0.8141505    
   18800.00      -1.324846      0.8063121    
   18900.00      -1.343870      0.7985873    
   19000.00      -1.363284      0.7909741    
   19100.00      -1.383110      0.7834702    
   19200.00      -1.403373      0.7760736    
   19300.00      -1.424099      0.7687823    
   19400.00      -1.445317      0.7615941    
   19500.00      -1.467058      0.7545071    
   19600.00      -1.489355      0.7475194    
   19700.00      -1.512244      0.7406291    
   19800.00      -1.535764      0.7338346    
   19900.00      -1.559959      0.7271337    
   20000.00      -1.584875      0.7205250    
   20100.00      -1.610563      0.7140066    
   20200.00      -1.637081      0.7075770    
   20300.00      -1.664489      0.7012346    
   20400.00      -1.692858      0.6949776    
   20500.00      -1.722265      0.6888046    
   20600.00      -1.752793      0.6827141    
   20700.00      -1.784538      0.6767045    
   20800.00      -1.817608      0.6707746    
   20900.00      -1.852124      0.6649228    
   21000.00      -1.888224      0.6591476    
   21100.00      -1.926063      0.6534479    
   21200.00      -1.965822      0.6478222    
   21300.00      -2.007709      0.6422694    
   21400.00      -2.051966      0.6367880    
   21500.00      -2.098876      0.6313769    
   21600.00      -2.148776      0.6260349    
   21700.00      -2.202066      0.6207607    
   21800.00      -2.259897      0.6155540    
   21900.00      -2.321526      0.6104140    
   22000.00      -2.388359      0.6053386    
   22100.00      -2.461323      0.6003264    
   22200.00      -2.541611      0.5953766    
   22300.00      -2.630789      0.5904882    
   22400.00      -2.730981      0.5856599    
   22500.00      -2.845146      0.5808909    
   22600.00      -2.977598      0.5761802    
   22700.00      -3.134965      0.5715267    
   22800.00      -3.328202      0.5669298    
   22900.00      -3.577406      0.5623882    
   23000.00      -3.925900      0.5579013    
   23100.00      -4.499771      0.5534680    
   23122.00      -4.693714      0.5524998    
   23127.00      -4.744025      0.5522801    
   23132.00      -4.797159      0.5520605    
   23137.00      -4.853469      0.5518411    
   23142.00      -4.913374      0.5516218    
   23147.00      -4.977305      0.5514027    
   23152.00      -5.045887      0.5511836    
   23157.00      -5.119778      0.5509647    
   23162.00      -5.199922      0.5507459    
   23167.00      -5.287384      0.5505273    
   23172.00      -5.383695      0.5503088    
   23177.00      -5.490731      0.5500904    
   23182.00      -5.611203      0.5498722    
   23187.00      -5.748984      0.5496540    
   23192.00      -5.909683      0.5494361    
   23197.00      -6.102556      0.5492182    
   23200.00      -6.239835      0.5490875    
   23202.00      -6.343397      0.5490005    
   23207.00      -6.664284      0.5487828    
   23212.00      -7.145240      0.5485654    
   23217.00      -8.129757      0.5483481    
   23222.00      -8.458675       3.650104    
   23227.00      -7.253163       3.648633    
   23232.00      -6.724236       3.647163    
   23237.00      -6.380579       3.645696    
   23242.00      -6.125194       3.644229    
   23247.00      -5.921881       3.642764    
   23252.00      -5.752777       3.641300    
   23257.00      -5.608054       3.639838    
   23262.00      -5.481483       3.638376    
   23267.00      -5.368944       3.636917    
   23272.00      -5.267683       3.635458    
   23277.00      -5.175563       3.634001    
   23282.00      -5.091116       3.632546    
   23287.00      -5.013093       3.631091    
   23292.00      -4.940630       3.629638    
   23297.00      -4.872931       3.628186    
   23300.00      -4.834384       3.627316    
   23302.00      -4.809445       3.626736    
   23307.00      -4.749653       3.625288    
   23312.00      -4.693123       3.623840    
   23317.00      -4.639552       3.622394    
   23400.00      -4.009283       3.598582    
   23500.00      -3.553246       3.570375    
   23600.00      -3.235044       3.542684    
   23700.00      -2.990013       3.515496    
   23800.00      -2.790632       3.488801    
   23900.00      -2.622554       3.462587    
   24000.00      -2.477342       3.436844    
   24100.00      -2.349596       3.411560    
   24200.00      -2.235647       3.386726    
   24300.00      -2.132887       3.362333    
   24400.00      -2.039377       3.338369    
   24500.00      -1.953669       3.314826    
   24600.00      -1.874614       3.291694    
   24700.00      -1.801307       3.268965    
   24800.00      -1.733019       3.246631    
   24900.00      -1.669145       3.224683    
