  Element 86: Rn      Atomic mass:  222.0000

  Edge          keV         A
    K        98.4040    0.1260
    L-I      18.0490    0.6869
    L-II     17.3371    0.7151
    L-III    14.6194    0.8481
    M1        4.4820    2.7663
    M2        4.1590    2.9811
    M3        3.5380    3.5044
    M4        3.0215    4.1034
    M5        2.8924    4.2866
    N1        1.0970   11.3021

Scattering factors as a function of energy: 

   1000.000      -30.99310       29.33323    
   1100.000      -29.30775       27.74952    
   1200.000      -26.98144       25.81777    
   1300.000      -25.58058       24.06408    
   1400.000      -24.53788       22.47263    
   1500.000      -23.75811       21.01619    
   1600.000      -23.21356       19.68024    
   1700.000      -22.85771       18.45400    
   1800.000      -22.67084       17.32583    
   1900.000      -22.63956       16.28613    
   2000.000      -22.75804       15.32646    
   2100.000      -23.02809       14.43941    
   2200.000      -23.72363       13.63535    
   2300.000      -24.54556       12.91603    
   2400.000      -25.39740       12.26574    
   2500.000      -26.56441       11.66314    
   2600.000      -28.24471       11.10355    
   2700.000      -31.00929       10.58287    
   2795.000      -37.07132       10.12099    
   2800.000      -37.65633       10.09750    
   2805.000      -38.29551       10.07410    
   2810.000      -38.99718       10.05078    
   2815.000      -39.77158       10.02754    
   2820.000      -40.63116       10.00438    
   2825.000      -41.59152       9.981297    
   2830.000      -42.67210       9.958292    
   2835.000      -43.89795       9.935365    
   2840.000      -45.30138       9.912517    
   2845.000      -46.92552       9.889744    
   2850.000      -48.82824       9.867049    
   2855.000      -51.09177       9.844427    
   2860.000      -53.83575       9.821883    
   2865.000      -57.24145       9.799414    
   2870.000      -61.60419       9.777020    
   2875.000      -67.45172       9.754702    
   2880.000      -75.86503       9.732458    
   2885.000      -89.67271       9.710289    
   2890.000      -122.3323       9.688194    
   2895.000      -117.9630       108.6403    
   2900.000      -76.05597       94.71932    
   2905.000      -57.79975       83.22652    
   2910.000      -47.45512       73.69218    
   2915.000      -41.13262       65.74705    
   2920.000      -37.18885       59.09659    
   2924.000      -35.15835       54.54980    
   2925.000      -34.76903       53.50727    
   2929.000      -33.58907       49.67226    
   2930.000      -33.37579       48.79107    
   2934.000      -32.78917       45.54475    
   2935.000      -32.70096       44.79772    
   2939.000      -32.54218       42.04071    
   2940.000      -32.54565       41.40516    
   2944.000      -32.70596       39.05700    
   2945.000      -32.77909       38.51512    
   2949.000      -33.18669       36.51035    
   2950.000      -33.31509       36.04713    
   2954.000      -33.92361       34.33239    
   2955.000      -34.09811       33.93600    
   2959.000      -34.87963       32.46754    
   2960.000      -35.09517       32.12800    
   2964.000      -36.03587       30.87017    
   2965.000      -36.29059       30.57937    
   2969.000      -37.38906       29.50259    
   2970.000      -37.68402       29.25386    
   2974.000      -38.95029       28.33406    
   2975.000      -39.28956       28.12192    
   2979.000      -40.74682       27.33907    
   2980.000      -41.13803       27.15901    
   2984.000      -42.82553       26.49684    
   2985.000      -43.28111       26.34516    
   2989.000      -45.26191       25.79020    
   2990.000      -45.80153       25.66389    
   2994.000      -48.17579       25.20532    
   2999.000      -51.76659       24.73093    
   3000.000      -52.59295       24.64850    
   3004.000      -56.38925       24.35904    
   3009.000      -62.77651       24.08216    
   3014.000      -72.82843       23.89505    
   3019.000      -95.38316       23.79433    
   3024.000      -94.82032       91.67433    
   3029.000      -67.89321       86.62834    
   3034.000      -55.70247       82.10756    
   3039.000      -40.23029       77.79021    
   3044.000      -34.15146       73.79094    
   3049.000      -29.60163       70.11987    
   3054.000      -26.09620       66.74721    
   3059.000      -23.34615       63.64547    
   3064.000      -21.16430       60.79049    
   3069.000      -19.42116       58.15989    
   3074.000      -18.02422       55.73398    
   3079.000      -16.90318       53.49452    
   3084.000      -16.00563       51.42533    
   3089.000      -15.29039       49.51174    
   3094.000      -14.72485       47.74022    
   3099.000      -14.28295       46.09883    
   3100.000      -14.20748       45.78518    
   3104.000      -13.94355       44.57642    
   3109.000      -13.68942       43.16318    
   3114.000      -13.50635       41.84991    
   3119.000      -13.38264       40.62850    
   3200.000      -14.75236       28.97718    
   3300.000      -17.55586       23.73488    
   3400.000      -19.98619       21.44340    
   3440.000      -21.04862       20.86210    
   3445.000      -21.19436       20.79821    
   3450.000      -21.34430       20.73605    
   3455.000      -21.49897       20.67558    
   3460.000      -21.65906       20.61674    
   3465.000      -21.82530       20.55950    
   3470.000      -21.99866       20.50381    
   3475.000      -22.18024       20.44962    
   3480.000      -22.37146       20.39691    
   3485.000      -22.57408       20.34563    
   3490.000      -22.79039       20.29576    
   3495.000      -23.02341       20.24727    
   3500.000      -23.27731       20.20013    
   3505.000      -23.55798       20.15431    
   3510.000      -23.87419       20.10979    
   3515.000      -24.24000       20.06656    
   3520.000      -24.67981       20.02458    
   3525.000      -25.24233       19.98385    
   3530.000      -26.04933       19.94435    
   3535.000      -27.61312       19.90606    
   3540.000      -28.30486       24.68398    
   3545.000      -26.44298       24.63199    
   3550.000      -25.68179       24.58138    
   3555.000      -25.21660       24.53212    
   3560.000      -24.89301       24.48421    
   3565.000      -24.65321       24.43764    
   3570.000      -24.46919       24.39243    
   3575.000      -24.32522       24.34855    
   3580.000      -24.21160       24.30601    
   3585.000      -24.12189       24.26481    
   3590.000      -24.05165       24.22495    
   3595.000      -23.99767       24.18645    
   3600.000      -23.95755       24.14929    
   3605.000      -23.92947       24.11350    
   3610.000      -23.91203       24.07908    
   3615.000      -23.90409       24.04604    
   3620.000      -23.90476       24.01439    
   3625.000      -23.91332       23.98415    
   3630.000      -23.92918       23.95533    
   3635.000      -23.95185       23.92796    
   3700.000      -24.75251       23.71508    
   3800.000      -26.66616       23.98323    
   3900.000      -32.65047       25.74679    
   4000.000      -12.93854       26.04948    
   4062.000      -12.70186       25.42536    
   4067.000      -12.69266       25.37646    
   4072.000      -12.68545       25.32776    
   4077.000      -12.68042       25.27928    
   4082.000      -12.67781       25.23101    
   4087.000      -12.67787       25.18294    
   4092.000      -12.68094       25.13507    
   4097.000      -12.68743       25.08741    
   4100.000      -12.69317       25.05892    
   4102.000      -12.69785       25.03996    
   4107.000      -12.71286       24.99270    
   4112.000      -12.73332       24.94565    
   4117.000      -12.76039       24.89879    
   4122.000      -12.79573       24.85214    
   4127.000      -12.84721       24.80569    
   4132.000      -12.90702       24.75944    
   4137.000      -12.98639       24.71339    
   4142.000      -13.09547       24.66753    
   4147.000      -13.25504       24.62187    
   4152.000      -13.52093       24.57640    
   4157.000      -14.18452       24.53113    
   4162.000      -13.92656       26.24082    
   4167.000      -13.34173       26.18923    
   4172.000      -13.03605       26.13790    
   4177.000      -12.82130       26.08684    
   4182.000      -12.65255       26.03605    
   4187.000      -12.51182       25.98553    
   4192.000      -12.39002       25.93528    
   4197.000      -12.28197       25.88528    
   4200.000      -12.22233       25.85541    
   4202.000      -12.18439       25.83555    
   4207.000      -12.09510       25.78608    
   4212.000      -12.01254       25.73686    
   4217.000      -11.93559       25.68790    
   4222.000      -11.86340       25.63919    
   4227.000      -11.79533       25.59074    
   4232.000      -11.73084       25.54255    
   4237.000      -11.66954       25.49460    
   4242.000      -11.61107       25.44689    
   4247.000      -11.55517       25.39944    
   4252.000      -11.50161       25.35224    
   4257.000      -11.45018       25.30527    
   4300.000      -11.07764       24.91125    
   4385.000      -10.60787       24.18191    
   4390.000      -10.59077       24.14096    
   4395.000      -10.57510       24.10021    
   4400.000      -10.56094       24.05968    
   4405.000      -10.54844       24.01936    
   4410.000      -10.53773       23.97924    
   4415.000      -10.52900       23.93933    
   4420.000      -10.52248       23.89962    
   4425.000      -10.51846       23.86012    
   4430.000      -10.51732       23.82082    
   4435.000      -10.51956       23.78172    
   4440.000      -10.52584       23.74282    
   4445.000      -10.53707       23.70412    
   4450.000      -10.55461       23.66562    
   4455.000      -10.58047       23.62732    
   4460.000      -10.61792       23.58921    
   4465.000      -10.67284       23.55130    
   4470.000      -10.75730       23.51359    
   4475.000      -10.90374       23.47607    
   4480.000      -11.28151       23.43874    
   4485.000      -11.12323       24.42049    
   4490.000      -10.77808       24.38348    
   4495.000      -10.59384       24.34665    
   4500.000      -10.46180       24.31001    
   4505.000      -10.35608       24.27356    
   4510.000      -10.26633       24.23730    
   4515.000      -10.18735       24.20122    
   4520.000      -10.11616       24.16532    
   4525.000      -10.05087       24.12961    
   4530.000      -9.990251       24.09408    
   4535.000      -9.933411       24.05873    
   4540.000      -9.879698       24.02356    
   4545.000      -9.828632       23.98857    
   4550.000      -9.779842       23.95377    
   4555.000      -9.733034       23.91914    
   4560.000      -9.687963       23.88469    
   4565.000      -9.644440       23.85042    
   4570.000      -9.602303       23.81632    
   4575.000      -9.561421       23.78241    
   4580.000      -9.521676       23.74866    
   4600.000      -8.904153       23.61479    
   4700.000      -8.249484       22.87739    
   4800.000      -7.741298       22.18677    
   4900.000      -7.318635       21.53942    
   5000.000      -6.959776       20.93236    
   5100.000      -6.650208       20.36312    
   5200.000      -6.380224       19.82967    
   5300.000      -6.142577       19.33033    
   5400.000      -5.931487       18.86375    
   5500.000      -5.398006       18.36994    
   5600.000      -5.197349       17.89230    
   5700.000      -5.017639       17.43355    
   5800.000      -4.835728       16.99234    
   5900.000      -4.706319       16.56822    
   6000.000      -4.578173       16.16101    
   6100.000      -4.448411       15.76846    
   6200.000      -4.345973       15.38994    
   6300.000      -4.254772       15.02532    
   6400.000      -4.173808       14.67389    
   6500.000      -4.102192       14.33500    
   6600.000      -4.039132       14.00805    
   6700.000      -3.983921       13.69245    
   6800.000      -3.935925       13.38768    
   6900.000      -3.894575       13.09321    
   7000.000      -3.859360       12.80858    
   7100.000      -3.842823       12.53359    
   7200.000      -3.818806       12.26834    
   7300.000      -3.799604       12.01167    
   7400.000      -3.784876       11.76322    
   7500.000      -3.774315       11.52260    
   7600.000      -3.767642       11.28950    
   7700.000      -3.764605       11.06359    
   7800.000      -3.764973       10.84456    
   7900.000      -3.768542       10.63214    
   8000.000      -3.775124       10.42604    
   8100.000      -3.784551       10.22602    
   8200.000      -3.796673       10.03182    
   8300.000      -3.811356       9.843222    
   8400.000      -3.839936       9.660618    
   8500.000      -3.859621       9.483331    
   8600.000      -3.881532       9.311027    
   8700.000      -3.905622       9.143517    
   8800.000      -3.931928       8.980617    
   8900.000      -3.961106       8.822158    
   9000.000      -3.988989       8.669833    
   9100.000      -4.018443       8.521649    
   9200.000      -4.049411       8.377454    
   9300.000      -4.081844       8.237096    
   9400.000      -4.115700       8.100438    
   9500.000      -4.150943       7.967346    
   9600.000      -4.187543       7.837693    
   9700.000      -4.225475       7.711358    
   9800.000      -4.264723       7.588223    
   9900.000      -4.305271       7.468180    
   10000.00      -4.347146       7.351119    
   10100.00      -4.391338       7.236943    
   10200.00      -4.435824       7.125568    
   10300.00      -4.481608       7.016886    
   10400.00      -4.528703       6.910809    
   10500.00      -4.577128       6.807250    
   10600.00      -4.626911       6.706128    
   10700.00      -4.679782       6.607380    
   10800.00      -4.732419       6.510925    
   10900.00      -4.786509       6.416682    
   11000.00      -4.842104       6.324581    
   11100.00      -4.899262       6.234555    
   11200.00      -4.958045       6.146542    
   11300.00      -5.018525       6.060477    
   11400.00      -5.080784       5.976303    
   11500.00      -5.144913       5.893962    
   11600.00      -5.211015       5.813400    
   11700.00      -5.279203       5.734564    
   11800.00      -5.349609       5.657403    
   11900.00      -5.422376       5.581869    
   12000.00      -5.497667       5.507913    
   12100.00      -5.575668       5.435492    
   12200.00      -5.656583       5.364562    
   12300.00      -5.740652       5.295079    
   12400.00      -5.828140       5.227004    
   12500.00      -5.919362       5.160298    
   12600.00      -6.015428       5.094934    
   12700.00      -6.115216       5.030873    
   12800.00      -6.219965       4.968070    
   12900.00      -6.330229       4.906492    
   13000.00      -6.446670       4.846107    
   13100.00      -6.572152       4.786885    
   13200.00      -6.703465       4.728839    
   13300.00      -6.843849       4.671892    
   13400.00      -6.994731       4.616017    
   13500.00      -7.157919       4.561186    
   13600.00      -7.335732       4.507372    
   13700.00      -7.531212       4.454549    
   13800.00      -7.748474       4.402692    
   13900.00      -7.993252       4.351777    
   14000.00      -8.273907       4.301780    
   14100.00      -8.603276       4.252678    
   14200.00      -9.002601       4.204451    
   14300.00      -9.510892       4.157075    
   14400.00      -10.21246       4.110531    
   14500.00      -11.35522       4.064810    
   14522.00      -11.73880       4.054859    
   14527.00      -11.83819       4.052603    
   14532.00      -11.94315       4.050349    
   14537.00      -12.05437       4.048097    
   14542.00      -12.17263       4.045846    
   14547.00      -12.29887       4.043598    
   14552.00      -12.43424       4.041351    
   14557.00      -12.58014       4.039107    
   14562.00      -12.73834       4.036864    
   14567.00      -12.91111       4.034624    
   14572.00      -13.10132       4.032386    
   14577.00      -13.31296       4.030149    
   14582.00      -13.55140       4.027914    
   14587.00      -13.82436       4.025681    
   14592.00      -14.14347       4.023450    
   14597.00      -14.52746       4.021222    
   14600.00      -14.80176       4.019885    
   14602.00      -15.00940       4.018995    
   14607.00      -15.65656       4.016769    
   14612.00      -16.64404       4.014546    
   14617.00      -18.80093       4.012326    
   14622.00      -18.66251       10.05393    
   14627.00      -16.59326       10.04834    
   14632.00      -15.61620       10.04276    
   14637.00      -14.96934       10.03719    
   14642.00      -14.48474       10.03162    
   14647.00      -14.09696       10.02605    
   14652.00      -13.77361       10.02049    
   14657.00      -13.49628       10.01493    
   14662.00      -13.25338       10.00938    
   14667.00      -13.03731       10.00383    
   14672.00      -12.84272       9.998281    
   14677.00      -12.66570       9.992738    
   14682.00      -12.50333       9.987200    
   14687.00      -12.35338       9.981666    
   14692.00      -12.21406       9.976135    
   14697.00      -12.08401       9.970611    
   14700.00      -12.00990       9.967297    
   14702.00      -11.96201       9.965089    
   14707.00      -11.84714       9.959571    
   14712.00      -11.73862       9.954057    
   14717.00      -11.63579       9.948546    
   14800.00      -10.43184       9.857671    
   14900.00      -9.573465       9.749636    
   15000.00      -8.986796       9.643159    
   15100.00      -8.546071       9.538215    
   15200.00      -8.197715       9.434775    
   15300.00      -7.913861       9.332813    
   15400.00      -7.683180       9.232370    
   15500.00      -7.485431       9.133382    
   15600.00      -7.318664       9.035794    
   15700.00      -7.178117       8.939584    
   15800.00      -7.060439       8.844723    
   15900.00      -6.963280       8.751190    
   16000.00      -6.885037       8.658962    
   16100.00      -6.824720       8.568016    
   16200.00      -6.781877       8.478330    
   16300.00      -6.756579       8.389883    
   16400.00      -6.749473       8.302652    
   16500.00      -6.761900       8.216618    
   16600.00      -6.796138       8.131758    
   16700.00      -6.855839       8.048055    
   16800.00      -6.946875       7.965489    
   16900.00      -7.079089       7.884038    
   17000.00      -7.270346       7.803687    
   17100.00      -7.557932       7.724415    
   17200.00      -8.042804       7.646205    
   17240.00      -8.361061       7.615216    
   17245.00      -8.410410       7.611352    
   17250.00      -8.462628       7.607494    
   17255.00      -8.518073       7.603638    
   17260.00      -8.577172       7.599782    
   17265.00      -8.640365       7.595931    
   17270.00      -8.708290       7.592081    
   17275.00      -8.781624       7.588235    
   17280.00      -8.861332       7.584391    
   17285.00      -8.948517       7.580550    
   17290.00      -9.044760       7.576710    
   17295.00      -9.152012       7.572874    
   17300.00      -9.273107       7.569041    
   17305.00      -9.412115       7.565209    
   17310.00      -9.575001       7.561381    
   17315.00      -9.771706       7.557554    
   17320.00      -10.01953       7.553731    
   17325.00      -10.35457       7.549910    
   17330.00      -10.87198       7.546092    
   17335.00      -12.05708       7.542277    
   17340.00      -11.74857       10.60856    
   17345.00      -10.76647       10.60346    
   17350.00      -10.28454       10.59836    
   17355.00      -9.962079       10.59326    
   17360.00      -9.719064       10.58817    
   17365.00      -9.524003       10.58308    
   17370.00      -9.360890       10.57799    
   17375.00      -9.220774       10.57290    
