  Element 51: Sb      Atomic mass:  121.7500

  Edge          keV         A
    K        30.4912    0.4066
    L-I       4.6983    2.6389
    L-II      4.3804    2.8304
    L-III     4.1322    3.0004

Scattering factors as a function of energy: 

   1000.000      -11.80711       24.04015    
   1100.000      -9.505189       21.63727    
   1200.000      -7.983030       19.55356    
   1300.000      -6.937045       17.73706    
   1400.000      -6.199494       16.15649    
   1500.000      -5.661477       14.77380    
   1600.000      -5.315005       13.55524    
   1700.000      -5.055348       12.48680    
   1800.000      -4.883482       11.53821    
   1900.000      -4.797727       10.69303    
   2000.000      -4.748501       9.936948    
   2100.000      -4.742525       9.257375    
   2200.000      -4.890482       8.655450    
   2300.000      -4.945248       8.113972    
   2400.000      -5.024939       7.621761    
   2500.000      -5.127174       7.172884    
   2600.000      -5.250607       6.762289    
   2700.000      -5.394918       6.385658    
   2800.000      -5.561098       6.039280    
   2900.000      -5.757222       5.720049    
   3000.000      -5.994437       5.425198    
   3100.000      -6.222447       5.161564    
   3200.000      -6.477096       4.917472    
   3300.000      -6.765496       4.691054    
   3400.000      -7.091969       4.480657    
   3500.000      -7.468798       4.284714    
   3600.000      -7.912734       4.101889    
   3700.000      -8.450916       3.930999    
   3800.000      -9.132996       3.771023    
   3900.000      -10.05588       3.621086    
   4000.000      -11.49109       3.480281    
   4035.000      -12.26530       3.433017    
   4040.000      -12.39764       3.426346    
   4045.000      -12.53718       3.419696    
   4050.000      -12.68478       3.413067    
   4055.000      -12.84142       3.406457    
   4060.000      -13.00835       3.399868    
   4065.000      -13.18703       3.393298    
   4070.000      -13.37927       3.386748    
   4075.000      -13.58734       3.380218    
   4080.000      -13.81419       3.373708    
   4085.000      -14.06357       3.367217    
   4090.000      -14.34055       3.360745    
   4095.000      -14.65212       3.354294    
   4100.000      -15.00836       3.347861    
   4105.000      -15.42443       3.341448    
   4110.000      -15.92482       3.335053    
   4115.000      -16.55297       3.328679    
   4120.000      -17.39820       3.322323    
   4125.000      -18.69591       3.315986    
   4130.000      -21.61562       3.309667    
   4135.000      -21.02710       11.06989    
   4140.000      -18.47883       11.03836    
   4145.000      -17.24737       11.00703    
   4150.000      -16.42999       10.97591    
   4155.000      -15.81923       10.94498    
   4160.000      -15.33313       10.91426    
   4165.000      -14.93064       10.88373    
   4170.000      -14.58841       10.85339    
   4175.000      -14.29177       10.82325    
   4180.000      -14.03097       10.79331    
   4185.000      -13.79909       10.76355    
   4190.000      -13.59117       10.73398    
   4195.000      -13.40348       10.70459    
   4200.000      -13.23316       10.67540    
   4205.000      -13.07793       10.64639    
   4210.000      -12.93603       10.61755    
   4215.000      -12.80599       10.58891    
   4220.000      -12.68668       10.56044    
   4225.000      -12.57708       10.53215    
   4230.000      -12.47643       10.50404    
   4283.000      -11.84502       10.21658    
   4288.000      -11.82186       10.19042    
   4293.000      -11.80506       10.16443    
   4298.000      -11.79486       10.13859    
   4300.000      -11.79271       10.12830    
   4303.000      -11.79162       10.11291    
   4308.000      -11.79578       10.08739    
   4313.000      -11.80796       10.06202    
   4318.000      -11.82891       10.03681    
   4323.000      -11.85965       10.01175    
   4328.000      -11.90151       9.986842    
   4333.000      -11.95625       9.962086    
   4338.000      -12.02622       9.937481    
   4343.000      -12.11484       9.913022    
   4348.000      -12.22689       9.888711    
   4353.000      -12.36969       9.864546    
   4358.000      -12.55505       9.840529    
   4363.000      -12.80395       9.816654    
   4368.000      -13.15910       9.792922    
   4373.000      -13.73182       9.769332    
   4378.000      -15.04990       9.745885    
   4383.000      -14.90222       13.57064    
   4388.000      -13.52772       13.53626    
   4393.000      -12.85290       13.50208    
   4398.000      -12.39108       13.46813    
   4400.000      -12.23893       13.45460    
   4403.000      -12.03474       13.43438    
   4408.000      -11.74198       13.40083    
   4413.000      -11.49199       13.36750    
   4418.000      -11.27291       13.33437    
   4423.000      -11.07733       13.30145    
   4428.000      -10.90027       13.26872    
   4433.000      -10.73827       13.23620    
   4438.000      -10.58879       13.20388    
   4443.000      -10.44995       13.17176    
   4448.000      -10.32025       13.13983    
   4453.000      -10.19854       13.10810    
   4458.000      -10.08389       13.07656    
   4463.000      -9.975549       13.04522    
   4468.000      -9.872877       13.01406    
   4473.000      -9.775362       12.98309    
   4478.000      -9.682563       12.95232    
   4500.000      -9.321861       12.81909    
   4600.000      -8.350879       12.25607    
   4601.000      -8.345910       12.25077    
   4606.000      -8.322629       12.22437    
   4611.000      -8.302059       12.19813    
   4616.000      -8.284369       12.17204    
   4621.000      -8.269765       12.14611    
   4626.000      -8.258502       12.12033    
   4631.000      -8.250902       12.09470    
   4636.000      -8.247368       12.06922    
   4641.000      -8.248412       12.04389    
   4646.000      -8.254697       12.01871    
   4651.000      -8.267096       11.99367    
   4656.000      -8.286781       11.96878    
   4661.000      -8.315382       11.94404    
   4666.000      -8.355250       11.91944    
   4671.000      -8.409937       11.89498    
   4676.000      -8.485182       11.87067    
   4681.000      -8.591166       11.84650    
   4686.000      -8.748684       11.82247    
   4691.000      -9.012354       11.79857    
   4696.000      -9.646976       11.77482    
   4700.000      -9.793721       13.59795    
   4701.000      -9.514109       13.59295    
   4706.000      -8.859342       13.56806    
   4711.000      -8.526525       13.54332    
   4716.000      -8.293218       13.51871    
   4721.000      -8.109350       13.49423    
   4726.000      -7.955288       13.46990    
   4731.000      -7.821229       13.44569    
   4736.000      -7.701613       13.42163    
   4741.000      -7.592951       13.39769    
   4746.000      -7.492924       13.37389    
   4751.000      -7.399879       13.35022    
   4756.000      -7.312633       13.32668    
   4761.000      -7.230290       13.30327    
   4766.000      -7.152167       13.27999    
   4771.000      -7.077701       13.25684    
   4776.000      -7.006462       13.23381    
   4781.000      -6.938091       13.21092    
   4786.000      -6.872299       13.18815    
   4791.000      -6.808825       13.16550    
   4796.000      -6.747465       13.14297    
   4800.000      -6.699776       13.12504    
   4900.000      -5.765469       12.70139    
   5000.000      -5.102882       12.32126    
   5100.000      -4.583796       11.97982    
   5200.000      -4.157225       11.67296    
   5300.000      -3.795290       11.39715    
   5400.000      -3.122936       11.13059    
   5500.000      -2.821460       10.83750    
   5600.000      -2.555288       10.56187    
   5700.000      -2.147382       10.30077    
   5800.000      -1.922743       10.02468    
   5900.000      -1.721841       9.759982    
   6000.000      -1.541518       9.506063    
   6100.000      -1.379160       9.262341    
   6200.000      -1.220096       9.026402    
   6300.000      -1.086831       8.799265    
   6400.000     -0.9661846       8.580628    
   6500.000     -0.8568169       8.370067    
   6600.000     -0.7575686       8.167182    
   6700.000     -0.6674300       7.971601    
   6800.000     -0.5855171       7.782971    
   6900.000     -0.5110527       7.600965    
   7000.000     -0.4433494       7.425272    
   7100.000     -0.3817973       7.255600    
   7200.000     -0.3258536       7.091674    
   7300.000     -0.2750331       6.933233    
   7400.000     -0.2289017       6.780035    
   7500.000     -0.1870687       6.631847    
   7600.000     -0.1491827       6.488451    
   7700.000     -0.1149265       6.349641    
   7800.000     -8.4013142E-02   6.215221    
   7900.000     -5.6183465E-02   6.085007    
   8000.000     -3.1202115E-02   5.958823    
   8100.000     -8.8558793E-03   5.836503    
   8200.000      1.1047892E-02   5.717890    
   8300.000      2.2593230E-02   5.602978    
   8400.000      3.8073659E-02   5.491742    
   8500.000      5.1603872E-02   5.383783    
   8600.000      6.3303068E-02   5.278973    
   8700.000      7.3269002E-02   5.177189    
   8800.000      7.7152573E-02   5.078423    
   8900.000      8.3780266E-02   4.982624    
   9000.000      8.9963034E-02   4.890071    
   9100.000      9.4975851E-02   4.800124    
   9200.000      9.8902687E-02   4.712685    
   9300.000      0.1018212       4.627656    
   9400.000      0.1034972       4.544953    
   9500.000      0.1045515       4.464508    
   9600.000      0.1047990       4.386224    
   9700.000      0.1042965       4.310025    
   9800.000      0.1030971       4.235836    
   9900.000      0.1012531       4.163585    
   10000.00      9.8678328E-02   4.093205    
   10100.00      9.5506266E-02   4.024632    
   10200.00      9.1962896E-02   3.957804    
   10300.00      8.7934487E-02   3.892659    
   10400.00      8.3456486E-02   3.829142    
   10500.00      7.8560412E-02   3.767197    
   10600.00      7.3275670E-02   3.706771    
   10700.00      6.7629695E-02   3.647815    
   10800.00      6.1647858E-02   3.590281    
   10900.00      5.5354048E-02   3.534122    
   11000.00      4.8770312E-02   3.479294    
   11100.00      4.1917399E-02   3.425756    
   11200.00      3.4814678E-02   3.373466    
   11300.00      2.7480043E-02   3.322384    
   11400.00      1.9930463E-02   3.272475    
   11500.00      1.2181519E-02   3.223700    
   11600.00      4.2479681E-03   3.176027    
   11700.00     -3.8563842E-03   3.129421    
   11800.00     -1.2118864E-02   3.083849    
   11900.00     -2.0527324E-02   3.039283    
   12000.00     -2.9070716E-02   2.995691    
   12100.00     -3.7738487E-02   2.953044    
   12200.00     -4.6520751E-02   2.911317    
   12300.00     -5.5408530E-02   2.870480    
   12400.00     -6.4393088E-02   2.830511    
   12500.00     -7.3466599E-02   2.791382    
   12600.00     -8.2621500E-02   2.753071    
   12700.00     -9.1850720E-02   2.715556    
   12800.00     -0.1011479       2.678812    
   12900.00     -0.1105068       2.642820    
   13000.00     -0.1199219       2.607559    
   13100.00     -0.1293878       2.573008    
   13200.00     -0.1388994       2.539149    
   13300.00     -0.1484523       2.505962    
   13400.00     -0.1580421       2.473431    
   13500.00     -0.1676648       2.441537    
   13600.00     -0.1773168       2.410263    
   13700.00     -0.1869944       2.379595    
   13800.00     -0.1966945       2.349515    
   13900.00     -0.2064141       2.320009    
   14000.00     -0.2161506       2.291061    
   14100.00     -0.2259012       2.262659    
   14200.00     -0.2356635       2.234788    
   14300.00     -0.2456708       2.207434    
   14400.00     -0.2572366       2.180591    
   14500.00     -0.2670264       2.154254    
   14600.00     -0.2768171       2.128397    
   14700.00     -0.2866097       2.103008    
   14800.00     -0.2964028       2.078076    
   14900.00     -0.3061953       2.053590    
   15000.00     -0.3159861       2.029539    
   15100.00     -0.3257742       2.005913    
   15200.00     -0.3355593       1.982702    
   15300.00     -0.3466452       1.959902    
   15400.00     -0.3564211       1.937504    
   15500.00     -0.3661904       1.915492    
   15600.00     -0.3759529       1.893857    
   15700.00     -0.3857084       1.872590    
   15800.00     -0.3954565       1.851684    
   15900.00     -0.4051970       1.831129    
   16000.00     -0.4149298       1.810918    
   16100.00     -0.4246547       1.791044    
   16200.00     -0.4343716       1.771498    
   16300.00     -0.4440804       1.752273    
   16400.00     -0.4537815       1.733363    
   16500.00     -0.4634750       1.714760    
   16600.00     -0.4731609       1.696458    
   16700.00     -0.4828395       1.678449    
   16800.00     -0.4925109       1.660729    
   16900.00     -0.5021759       1.643290    
   17000.00     -0.5118346       1.626127    
   17100.00     -0.5214876       1.609234    
   17200.00     -0.5311353       1.592604    
   17300.00     -0.5407780       1.576234    
   17400.00     -0.5504167       1.560116    
   17500.00     -0.5600520       1.544246    
   17600.00     -0.5696844       1.528619    
   17700.00     -0.5793166       1.513229    
   17800.00     -0.5891474       1.498075    
   17900.00     -0.5988278       1.483148    
   18000.00     -0.6104063       1.468477    
   18100.00     -0.6200312       1.454026    
   18200.00     -0.6296562       1.439790    
   18300.00     -0.6392828       1.425764    
   18400.00     -0.6489127       1.411943    
   18500.00     -0.6585468       1.398324    
   18600.00     -0.6681861       1.384903    
   18700.00     -0.6778318       1.371676    
   18800.00     -0.6874846       1.358639    
   18900.00     -0.6971462       1.345788    
   19000.00     -0.7083941       1.333125    
   19100.00     -0.7180721       1.320661    
   19200.00     -0.7277620       1.308373    
   19300.00     -0.7374650       1.296258    
   19400.00     -0.7471827       1.284311    
   19500.00     -0.7569164       1.272531    
   19600.00     -0.7666674       1.260913    
   19700.00     -0.7764372       1.249454    
   19800.00     -0.7862270       1.238153    
   19900.00     -0.7960388       1.227006    
   20000.00     -0.8058740       1.216009    
   20100.00     -0.8157342       1.205161    
   20200.00     -0.8256211       1.194458    
   20300.00     -0.8355370       1.183899    
   20400.00     -0.8478423       1.173494    
   20500.00     -0.8578241       1.163248    
   20600.00     -0.8678378       1.153137    
   20700.00     -0.8778864       1.143159    
   20800.00     -0.8879718       1.133312    
   20900.00     -0.8980965       1.123593    
   21000.00     -0.9082623       1.114000    
   21100.00     -0.9184713       1.104530    
   21200.00     -0.9287258       1.095182    
   21300.00     -0.9390277       1.085954    
   21400.00     -0.9493799       1.076844    
   21500.00     -0.9597845       1.067848    
   21600.00     -0.9702440       1.058967    
   21700.00     -0.9807608       1.050196    
   21800.00     -0.9913374       1.041536    
   21900.00      -1.001977       1.032983    
   22000.00      -1.012682       1.024537    
   22100.00      -1.023455       1.016194    
   22200.00      -1.034300       1.007954    
   22300.00      -1.045219      0.9998155    
   22400.00      -1.056216      0.9917758    
   22500.00      -1.067293      0.9838335    
   22600.00      -1.078455      0.9759872    
   22700.00      -1.089705      0.9682353    
   22800.00      -1.101046      0.9605765    
   22900.00      -1.112482      0.9530089    
   23000.00      -1.124018      0.9455312    
   23100.00      -1.135657      0.9381419    
   23200.00      -1.147403      0.9308398    
   23300.00      -1.159261      0.9236235    
   23400.00      -1.171236      0.9164914    
   23500.00      -1.183332      0.9094423    
   23600.00      -1.195555      0.9024749    
   23700.00      -1.207909      0.8955880    
   23800.00      -1.220399      0.8887804    
   23900.00      -1.233033      0.8820506    
   24000.00      -1.245815      0.8753976    
   24100.00      -1.258751      0.8688202    
   24200.00      -1.271849      0.8623172    
   24300.00      -1.285115      0.8558877    
   24400.00      -1.298555      0.8495302    
   24500.00      -1.312179      0.8432438    
   24600.00      -1.325992      0.8370275    
   24700.00      -1.340004      0.8308802    
   24800.00      -1.354224      0.8248008    
   24900.00      -1.368660      0.8187884    
