  Element 50: Sn      Atomic mass:  118.6900

  Edge          keV         A
    K        29.2001    0.4246
    L-I       4.4647    2.7770
    L-II      4.1561    2.9832
    L-III     3.9288    3.1558

Scattering factors as a function of energy: 

   1000.000      -10.51584       22.30617    
   1100.000      -8.663243       20.03055    
   1200.000      -7.399410       18.06472    
   1300.000      -6.549289       16.36553    
   1400.000      -5.932406       14.89137    
   1500.000      -5.517382       13.60258    
   1600.000      -5.222460       12.47553    
   1700.000      -5.045357       11.48155    
   1800.000      -4.929061       10.60126    
   1900.000      -4.872714       9.817336    
   2000.000      -4.983645       9.123964    
   2100.000      -5.010093       8.509688    
   2200.000      -5.067599       7.955694    
   2300.000      -5.152116       7.454147    
   2400.000      -5.260952       6.998472    
   2500.000      -5.392531       6.583121    
   2600.000      -5.550621       6.203469    
   2700.000      -5.726938       5.855549    
   2800.000      -5.927268       5.535733    
   2900.000      -6.197406       5.242746    
   3000.000      -6.474133       4.974489    
   3100.000      -6.762603       4.732171    
   3200.000      -7.091629       4.507943    
   3300.000      -7.472515       4.299990    
   3400.000      -7.922532       4.106722    
   3500.000      -8.469783       3.926747    
   3600.000      -9.165533       3.758887    
   3700.000      -10.11196       3.602045    
   3800.000      -11.59580       3.455227    
   3831.000      -12.29833       3.411611    
   3836.000      -12.43162       3.404657    
   3841.000      -12.57210       3.397725    
   3846.000      -12.72060       3.390815    
   3851.000      -12.87813       3.383928    
   3856.000      -13.04587       3.377062    
   3861.000      -13.22528       3.370218    
   3866.000      -13.41813       3.363395    
   3871.000      -13.62667       3.356595    
   3876.000      -13.85372       3.349815    
   3881.000      -14.10300       3.343057    
   3886.000      -14.37939       3.336321    
   3891.000      -14.68969       3.329605    
   3896.000      -15.04354       3.322911    
   3900.000      -15.36750       3.317571    
   3901.000      -15.45546       3.316238    
   3906.000      -15.94859       3.309586    
   3911.000      -16.56361       3.302954    
   3916.000      -17.38201       3.296344    
   3921.000      -18.61064       3.289754    
   3926.000      -21.15199       3.283184    
   3931.000      -21.76125       11.09898    
   3936.000      -18.79413       11.06655    
   3941.000      -17.47582       11.03434    
   3946.000      -16.62034       11.00233    
   3951.000      -15.98837       10.97054    
   3956.000      -15.48896       10.93896    
   3961.000      -15.07772       10.90758    
   3966.000      -14.72955       10.87640    
   3971.000      -14.42893       10.84543    
   3976.000      -14.16554       10.81466    
   3981.000      -13.93223       10.78409    
   3986.000      -13.72377       10.75371    
   3991.000      -13.53631       10.72353    
   3996.000      -13.36688       10.69355    
   4000.000      -13.24275       10.66970    
   4001.000      -13.21317       10.66376    
   4006.000      -13.07336       10.63415    
   4011.000      -12.94598       10.60474    
   4016.000      -12.82986       10.57552    
   4021.000      -12.72403       10.54648    
   4026.000      -12.62770       10.51763    
   4059.000      -12.19604       10.33174    
   4064.000      -12.15889       10.30424    
   4069.000      -12.12906       10.27692    
   4074.000      -12.10672       10.24977    
   4079.000      -12.09214       10.22279    
   4084.000      -12.08574       10.19598    
   4089.000      -12.08805       10.16933    
   4094.000      -12.09982       10.14286    
   4099.000      -12.12203       10.11654    
   4100.000      -12.12783       10.11130    
   4104.000      -12.15600       10.09039    
   4109.000      -12.20349       10.06440    
   4114.000      -12.26692       10.03857    
   4119.000      -12.34970       10.01290    
   4124.000      -12.45669       9.987393    
   4129.000      -12.59560       9.962039    
   4134.000      -12.77852       9.936843    
   4139.000      -13.02740       9.911798    
   4144.000      -13.38732       9.886909    
   4149.000      -13.97837       9.862170    
   4154.000      -15.41183       9.837585    
   4159.000      -14.95816       13.68305    
   4164.000      -13.65778       13.64741    
   4169.000      -12.99304       13.61199    
   4174.000      -12.53217       13.57680    
   4179.000      -12.17397       13.54182    
   4184.000      -11.87825       13.50707    
   4189.000      -11.62482       13.47253    
   4194.000      -11.40212       13.43821    
   4199.000      -11.20282       13.40410    
   4200.000      -11.16531       13.39730    
   4204.000      -11.02207       13.37020    
   4209.000      -10.85644       13.33652    
   4214.000      -10.70341       13.30304    
   4219.000      -10.56112       13.26978    
   4224.000      -10.42807       13.23671    
   4229.000      -10.30312       13.20386    
   4234.000      -10.18534       13.17120    
   4239.000      -10.07398       13.13875    
   4244.000      -9.968412       13.10650    
   4249.000      -9.868109       13.07444    
   4254.000      -9.772635       13.04258    
   4300.000      -9.070667       12.75847    
   4367.000      -8.463139       12.37204    
   4372.000      -8.435762       12.34443    
   4377.000      -8.411206       12.31699    
   4382.000      -8.389625       12.28971    
   4387.000      -8.371218       12.26259    
   4392.000      -8.356236       12.23563    
   4397.000      -8.344989       12.20883    
   4400.000      -8.340192       12.19283    
   4402.000      -8.337869       12.18219    
   4407.000      -8.335377       12.15571    
   4412.000      -8.338161       12.12938    
   4417.000      -8.347070       12.10321    
   4422.000      -8.363255       12.07720    
   4427.000      -8.388301       12.05134    
   4432.000      -8.424490       12.02563    
   4437.000      -8.475255       12.00007    
   4442.000      -8.546127       11.97466    
   4447.000      -8.646813       11.94940    
   4452.000      -8.796892       11.92429    
   4457.000      -9.046325       11.89933    
   4462.000      -9.617661       11.87451    
   4467.000      -9.670532       13.69790    
   4472.000      -8.947975       13.67189    
   4477.000      -8.599073       13.64602    
   4482.000      -8.357283       13.62031    
   4487.000      -8.167522       13.59473    
   4492.000      -8.008795       13.56930    
   4497.000      -7.870789       13.54401    
   4500.000      -7.795405       13.52890    
   4502.000      -7.747683       13.51886    
   4507.000      -7.635827       13.49385    
   4512.000      -7.532824       13.46899    
   4517.000      -7.436988       13.44426    
   4522.000      -7.347101       13.41967    
   4527.000      -7.262226       13.39521    
   4532.000      -7.181661       13.37089    
   4537.000      -7.104848       13.34671    
   4542.000      -7.031345       13.32267    
   4547.000      -6.960772       13.29875    
   4552.000      -6.892834       13.27497    
   4557.000      -6.827276       13.25131    
   4562.000      -6.763891       13.22780    
   4600.000      -6.337349       13.05323    
   4700.000      -5.492517       12.62715    
   4800.000      -4.865308       12.24485    
   4900.000      -4.364522       11.90143    
   5000.000      -3.948074       11.59269    
   5100.000      -3.591431       11.31506    
   5200.000      -2.927650       11.00239    
   5300.000      -2.632857       10.70420    
   5400.000      -2.372152       10.42381    
   5500.000      -1.976434       10.13092    
   5600.000      -1.759931       9.849936    
   5700.000      -1.566643       9.580962    
   5800.000      -1.393505       9.323322    
   5900.000      -1.224864       9.074254    
   6000.000      -1.084024       8.834991    
   6100.000     -0.9570798       8.605097    
   6200.000     -0.8424951       8.384081    
   6300.000     -0.7389481       8.171487    
   6400.000     -0.6452956       7.966887    
   6500.000     -0.5605401       7.769882    
   6600.000     -0.4838086       7.580094    
   6700.000     -0.4143330       7.397173    
   6800.000     -0.3514342       7.220787    
   6900.000     -0.2945108       7.050625    
   7000.000     -0.2430264       6.886396    
   7100.000     -0.1965026       6.727824    
   7200.000     -0.1545105       6.574648    
   7300.000     -0.1166652       6.426626    
   7400.000     -8.2620181E-02   6.283526    
   7500.000     -5.2062709E-02   6.145132    
   7600.000     -2.4710003E-02   6.011235    
   7700.000     -3.0596528E-04   5.881644    
   7800.000      2.1381818E-02   5.756172    
   7900.000      3.3379052E-02   5.634861    
   8000.000      5.0196540E-02   5.517618    
   8100.000      6.4903744E-02   5.403996    
   8200.000      7.7657282E-02   5.293848    
   8300.000      8.8599041E-02   5.187028    
   8400.000      9.3334123E-02   5.083667    
   8500.000      0.1009879       4.983408    
   8600.000      0.1071695       4.886096    
   8700.000      0.1119213       4.791613    
   8800.000      0.1151275       4.699848    
   8900.000      0.1142818       4.610700    
   9000.000      0.1159951       4.524652    
   9100.000      0.1167665       4.441042    
   9200.000      0.1166614       4.359779    
   9300.000      0.1157150       4.280773    
   9400.000      0.1140772       4.203941    
   9500.000      0.1117563       4.129201    
   9600.000      0.1088024       4.056478    
   9700.000      0.1052622       3.985699    
   9800.000      0.1011783       3.916793    
   9900.000      9.6590929E-02   3.849694    
   10000.00      9.1536783E-02   3.784338    
   10100.00      8.6050242E-02   3.720664    
   10200.00      8.0163196E-02   3.658615    
   10300.00      7.3905110E-02   3.598134    
   10400.00      6.7303576E-02   3.539169    
   10500.00      6.0384016E-02   3.481667    
   10600.00      5.3170253E-02   3.425581    
   10700.00      4.5684453E-02   3.370864    
   10800.00      3.7947059E-02   3.317470    
   10900.00      2.9821169E-02   3.265357    
   11000.00      2.1633945E-02   3.214484    
   11100.00      1.3249014E-02   3.164811    
   11200.00      4.6819253E-03   3.116301    
   11300.00     -4.0530898E-03   3.068915    
   11400.00     -1.2942456E-02   3.022620    
   11500.00     -2.1973848E-02   2.977381    
   11600.00     -3.1135542E-02   2.933166    
   11700.00     -4.0416598E-02   2.889944    
   11800.00     -4.9807083E-02   2.847686    
   11900.00     -5.9297401E-02   2.806362    
   12000.00     -6.8878964E-02   2.765944    
   12100.00     -7.8543499E-02   2.726406    
   12200.00     -8.8283308E-02   2.687722    
   12300.00     -9.8091498E-02   2.649868    
   12400.00     -0.1079613       2.612819    
   12500.00     -0.1178867       2.576552    
   12600.00     -0.1278620       2.541045    
   12700.00     -0.1378817       2.506278    
   12800.00     -0.1479412       2.472229    
   12900.00     -0.1580357       2.438878    
   13000.00     -0.1681610       2.406206    
   13100.00     -0.1783132       2.374195    
   13200.00     -0.1884886       2.342826    
   13300.00     -0.1986837       2.312083    
   13400.00     -0.2088899       2.281948    
   13500.00     -0.2207611       2.252421    
   13600.00     -0.2310048       2.223473    
   13700.00     -0.2412571       2.195087    
   13800.00     -0.2515157       2.167248    
   13900.00     -0.2617784       2.139942    
   14000.00     -0.2720434       2.113155    
   14100.00     -0.2823092       2.086874    
   14200.00     -0.2925807       2.061086    
   14300.00     -0.3040499       2.035791    
   14400.00     -0.3143120       2.010965    
   14500.00     -0.3245693       1.986596    
   14600.00     -0.3348207       1.962672    
   14700.00     -0.3450656       1.939183    
   14800.00     -0.3553033       1.916119    
   14900.00     -0.3655331       1.893467    
   15000.00     -0.3757548       1.871220    
   15100.00     -0.3859678       1.849367    
   15200.00     -0.3961718       1.827898    
   15300.00     -0.4063667       1.806805    
   15400.00     -0.4165523       1.786079    
   15500.00     -0.4267287       1.765711    
   15600.00     -0.4368959       1.745694    
   15700.00     -0.4470538       1.726018    
   15800.00     -0.4572029       1.706676    
   15900.00     -0.4673431       1.687660    
   16000.00     -0.4774750       1.668964    
   16100.00     -0.4875989       1.650579    
   16200.00     -0.4977152       1.632499    
   16300.00     -0.5078242       1.614717    
   16400.00     -0.5179269       1.597227    
   16500.00     -0.5280237       1.580022    
   16600.00     -0.5383021       1.563095    
   16700.00     -0.5483980       1.546443    
   16800.00     -0.5584810       1.530058    
   16900.00     -0.5685608       1.513934    
   17000.00     -0.5786353       1.498066    
   17100.00     -0.5905955       1.482472    
   17200.00     -0.6006660       1.467132    
   17300.00     -0.6107368       1.452031    
   17400.00     -0.6208088       1.437163    
   17500.00     -0.6308830       1.422525    
   17600.00     -0.6409603       1.408112    
   17700.00     -0.6510419       1.393918    
   17800.00     -0.6611289       1.379940    
   17900.00     -0.6712230       1.366173    
   18000.00     -0.6813318       1.352613    
   18100.00     -0.6929922       1.339279    
   18200.00     -0.7031105       1.326145    
   18300.00     -0.7132400       1.313206    
   18400.00     -0.7233827       1.300457    
   18500.00     -0.7335401       1.287894    
   18600.00     -0.7437137       1.275515    
   18700.00     -0.7539052       1.263314    
   18800.00     -0.7641158       1.251290    
   18900.00     -0.7743478       1.239438    
   19000.00     -0.7846027       1.227755    
   19100.00     -0.7948824       1.216238    
   19200.00     -0.8051892       1.204883    
   19300.00     -0.8155293       1.193688    
   19400.00     -0.8281452       1.182668    
   19500.00     -0.8385503       1.171819    
   19600.00     -0.8489845       1.161120    
   19700.00     -0.8594539       1.150568    
   19800.00     -0.8699609       1.140162    
   19900.00     -0.8805081       1.129899    
   20000.00     -0.8910977       1.119774    
   20100.00     -0.9017321       1.109787    
   20200.00     -0.9124138       1.099935    
   20300.00     -0.9231449       1.090214    
   20400.00     -0.9339286       1.080624    
   20500.00     -0.9447673       1.071161    
   20600.00     -0.9556636       1.061823    
   20700.00     -0.9666205       1.052608    
   20800.00     -0.9776406       1.043514    
   20900.00     -0.9887273       1.034539    
   21000.00     -0.9998837       1.025680    
   21100.00      -1.011113       1.016936    
   21200.00      -1.022418       1.008304    
   21300.00      -1.033803      0.9997833    
   21400.00      -1.045270      0.9913708    
   21500.00      -1.056825      0.9830652    
   21600.00      -1.068470      0.9748646    
   21700.00      -1.080210      0.9667673    
   21800.00      -1.092049      0.9587715    
   21900.00      -1.103990      0.9508754    
   22000.00      -1.116039      0.9430773    
   22100.00      -1.128201      0.9353758    
   22200.00      -1.140479      0.9277690    
   22300.00      -1.152878      0.9202557    
   22400.00      -1.165406      0.9128339    
   22500.00      -1.178065      0.9055024    
   22600.00      -1.190863      0.8982597    
   22700.00      -1.203805      0.8911043    
   22800.00      -1.216898      0.8840349    
   22900.00      -1.230147      0.8770499    
   23000.00      -1.243560      0.8701481    
   23100.00      -1.257144      0.8633280    
   23200.00      -1.270907      0.8565885    
   23300.00      -1.284855      0.8499284    
   23400.00      -1.298998      0.8433461    
   23500.00      -1.313344      0.8368406    
   23600.00      -1.327903      0.8304106    
   23700.00      -1.342683      0.8240550    
   23800.00      -1.357695      0.8177728    
   23900.00      -1.372950      0.8115625    
   24000.00      -1.388459      0.8054233    
   24100.00      -1.404234      0.7993538    
   24200.00      -1.420288      0.7933533    
   24300.00      -1.436634      0.7874206    
   24400.00      -1.453287      0.7815545    
   24500.00      -1.470262      0.7757542    
   24600.00      -1.487575      0.7700186    
   24700.00      -1.505244      0.7643468    
   24800.00      -1.523286      0.7587379    
   24900.00      -1.541722      0.7531908    
