  Element 73: Ta      Atomic mass:  180.9479

  Edge          keV         A
    K        67.4164    0.1839
    L-I      11.6815    1.0614
    L-II     11.1361    1.1134
    L-III     9.8811    1.2548
    M1        2.7080    4.5784
    M2        2.4687    5.0222
    M3        2.1940    5.6511
    M4        1.7932    6.9141
    M5        1.7351    7.1457

Scattering factors as a function of energy: 

   1000.000      -27.72336       14.38783    
   1100.000      -27.63776       13.24299    
   1200.000      -27.90856       12.23304    
   1300.000      -28.57364       11.33569    
   1400.000      -29.75089       10.53353    
   1500.000      -31.74843       9.812631    
   1600.000      -35.70881       9.161734    
   1638.000      -38.80198       8.931546    
   1643.000      -39.36412       8.901980    
   1648.000      -39.98237       8.872560    
   1653.000      -40.66648       8.843281    
   1658.000      -41.42850       8.814145    
   1663.000      -42.28356       8.785151    
   1668.000      -43.25082       8.756296    
   1673.000      -44.35491       8.727582    
   1678.000      -45.62798       8.699005    
   1683.000      -47.11274       8.670567    
   1688.000      -48.86713       8.642263    
   1693.000      -50.97167       8.614097    
   1696.000      -52.44850       8.597261    
   1698.000      -53.54177       8.586065    
   1700.000      -54.73603       8.574889    
   1701.000      -55.37537       8.569310    
   1703.000      -56.74903       8.558167    
   1706.000      -59.08471       8.541492    
   1708.000      -60.86132       8.530402    
   1711.000      -63.93690       8.513806    
   1713.000      -66.32470       8.502769    
   1716.000      -70.56303       8.486252    
   1718.000      -73.95247       8.475266    
   1721.000      -80.20574       8.458828    
   1723.000      -85.45378       8.447895    
   1726.000      -95.83739       8.431535    
   1728.000      -105.4439       8.420653    
   1731.000      -128.1445       8.404370    
   1733.000      -157.6559       8.393539    
   1736.000      -198.1166       163.0224    
   1738.000      -132.5266       153.6196    
   1741.000      -91.85294       140.7049    
   1743.000      -75.65365       132.8196    
   1746.000      -58.86983       121.9720    
   1748.000      -50.82289       115.3387    
   1751.000      -41.85732       106.2000    
   1753.000      -37.41580       100.6033    
   1756.000      -32.47612       92.88129    
   1758.000      -30.10697       88.14516    
   1761.000      -27.67366       81.60101    
   1763.000      -26.69170       77.58140    
   1766.000      -26.05579       72.01927    
   1768.000      -26.14639       68.59789    
   1771.000      -27.02341       63.85679    
   1773.000      -28.11077       60.93624    
   1776.000      -30.56584       56.88345    
   1778.000      -32.83681       54.38336    
   1781.000      -37.46374       50.90916    
   1783.000      -41.64669       48.76299    
   1786.000      -50.54179       45.77647    
   1788.000      -59.50495       43.92899    
   1791.000      -85.04507       41.35462    
   1793.000      -161.5833       39.75990    
   1796.000      -70.96394       137.1337    
   1798.000      -49.86262       129.8507    
   1800.000      -36.42632       123.0380    
   1801.000      -31.27284       119.7973    
   1803.000      -23.00216       113.6283    
   1806.000      -14.04102       105.1002    
   1808.000      -9.621788       99.85940    
   1811.000      -4.601799       92.60393    
   1813.000      -2.065075       88.13873    
   1816.000      0.8300616       81.94814    
   1818.000       2.279205       78.13279    
   1821.000       3.883960       72.83569    
   1823.000       4.655636       69.56636    
   1826.000       5.443201       65.02097    
   1828.000       5.767292       62.21166    
   1831.000       6.010705       58.30043    
   1833.000       6.038679       55.87970    
   1836.000       5.917640       52.50487    
   1841.000       5.380877       47.49335    
   1846.000       4.548070       43.14814    
   1851.000       3.521661       39.37064    
   1856.000       2.373565       36.07809    
   1861.000       1.134671       33.20088    
   1866.000     -0.1193376       30.68024    
   1871.000      -1.382884       28.46649    
   1876.000      -2.638249       26.51745    
   1881.000      -3.871556       24.79734    
   1886.000      -5.080471       23.27568    
   1891.000      -6.253438       21.92647    
   1900.000      -8.271451       19.86348    
   2000.000      -24.22676       11.22143    
   2097.000      -36.61876       10.32886    
   2100.000      -37.06186       10.35048    
   2102.000      -37.36129       10.36660    
   2107.000      -38.12476       10.41305    
   2112.000      -38.91117       10.46856    
   2117.000      -39.72276       10.53358    
   2122.000      -40.56187       10.60857    
   2127.000      -41.43122       10.69413    
   2132.000      -42.33372       10.79085    
   2137.000      -43.27281       10.89947    
   2142.000      -44.25228       11.02077    
   2147.000      -45.27680       11.15565    
   2152.000      -46.35178       11.30510    
   2157.000      -47.48420       11.47025    
   2162.000      -48.68290       11.65231    
   2167.000      -49.96037       11.85267    
   2172.000      -51.33489       12.07283    
   2177.000      -52.83726       12.31452    
   2182.000      -54.52731       12.57959    
   2187.000      -56.56012       12.87015    
   2192.000      -59.72881       13.18851    
   2197.000      -60.45619       18.28470    
   2200.000      -60.24154       18.49428    
   2202.000      -60.37917       18.64107    
   2207.000      -61.13535       19.03440    
   2212.000      -62.21997       19.46821    
   2217.000      -63.51767       19.94648    
   2222.000      -64.98649       20.47357    
   2227.000      -66.60964       21.05446    
   2232.000      -68.38129       21.69462    
   2237.000      -70.30161       22.40014    
   2242.000      -72.37481       23.17795    
   2247.000      -74.60751       24.03566    
   2252.000      -77.00913       24.98195    
   2257.000      -34.85680       25.75000    
   2262.000      -35.55740       25.84129    
   2267.000      -35.81756       25.94851    
   2272.000      -36.35779       26.07305    
   2277.000      -36.94392       26.21652    
   2282.000      -37.57821       26.38072    
   2287.000      -38.26316       26.56762    
   2292.000      -39.00183       26.77948    
   2300.000      -40.30383       27.17659    
   2371.000      -16.41666       28.86838    
   2376.000      -16.34053       28.77407    
   2381.000      -16.26831       28.68041    
   2386.000      -16.20012       28.58740    
   2391.000      -16.13612       28.49503    
   2396.000      -16.07652       28.40330    
   2400.000      -16.03220       28.33037    
   2401.000      -16.02161       28.31220    
   2406.000      -15.97175       28.22173    
   2411.000      -15.92741       28.13188    
   2416.000      -15.88923       28.04265    
   2421.000      -15.85804       27.95402    
   2426.000      -15.83497       27.86600    
   2431.000      -15.82163       27.77858    
   2436.000      -15.82032       27.69175    
   2441.000      -15.83453       27.60552    
   2446.000      -15.86988       27.51986    
   2451.000      -15.93630       27.43479    
   2456.000      -16.05386       27.35029    
   2461.000      -16.27383       27.26637    
   2466.000      -16.82487       27.18301    
   2471.000      -16.84172       29.00026    
   2476.000      -16.05927       28.90538    
   2481.000      -15.66576       28.81136    
   2486.000      -15.38507       28.71819    
   2491.000      -15.16001       28.62586    
   2496.000      -14.96861       28.53435    
   2500.000      -14.83228       28.46174    
   2501.000      -14.80007       28.44367    
   2506.000      -14.64824       28.35379    
   2511.000      -14.50931       28.26472    
   2516.000      -14.38070       28.17643    
   2521.000      -14.26064       28.08893    
   2526.000      -14.14781       28.00220    
   2531.000      -14.04122       27.91624    
   2536.000      -13.94012       27.83103    
   2541.000      -13.84390       27.74657    
   2546.000      -13.75209       27.66285    
   2551.000      -13.66430       27.57986    
   2556.000      -13.58022       27.49760    
   2561.000      -13.49957       27.41605    
   2566.000      -13.42214       27.33522    
   2600.000      -12.95740       26.80382    
   2611.000      -12.83622       26.63849    
   2616.000      -12.78508       26.56438    
   2621.000      -12.73643       26.49090    
   2626.000      -12.69034       26.41807    
   2631.000      -12.64691       26.34586    
   2636.000      -12.60625       26.27428    
   2641.000      -12.56854       26.20331    
   2646.000      -12.53399       26.13297    
   2651.000      -12.50291       26.06322    
   2656.000      -12.47569       25.99409    
   2661.000      -12.45285       25.92555    
   2666.000      -12.43511       25.85761    
   2671.000      -12.42348       25.79025    
   2676.000      -12.41945       25.72349    
   2681.000      -12.42525       25.65730    
   2686.000      -12.44455       25.59170    
   2691.000      -12.48390       25.52666    
   2696.000      -12.55689       25.46220    
   2700.000      -12.66190       25.41103    
   2701.000      -12.69991       25.39830    
   2706.000      -13.10339       25.33496    
   2711.000      -12.90385       26.41819    
   2716.000      -12.49433       26.35431    
   2721.000      -12.26675       26.29102    
   2726.000      -12.09851       26.22831    
   2731.000      -11.96042       26.16618    
   2736.000      -11.84075       26.10462    
   2741.000      -11.73363       26.04364    
   2746.000      -11.63568       25.98322    
   2751.000      -11.54475       25.92336    
   2756.000      -11.45941       25.86407    
   2761.000      -11.37866       25.80533    
   2766.000      -11.30174       25.74715    
   2771.000      -11.22810       25.68952    
   2776.000      -11.15729       25.63243    
   2781.000      -11.08897       25.57589    
   2786.000      -11.02286       25.51990    
   2791.000      -10.95873       25.46444    
   2796.000      -10.89638       25.40952    
   2800.000      -10.84768       25.36596    
   2801.000      -10.83565       25.35513    
   2806.000      -10.77640       25.30128    
   2900.000      -9.259114       24.28907    
   3000.000      -8.332583       23.26507    
   3100.000      -7.592741       22.24244    
   3200.000      -6.977481       21.28629    
   3300.000      -6.462598       20.39151    
   3400.000      -6.024938       19.55263    
   3500.000      -5.655300       18.76500    
   3600.000      -5.352642       18.02695    
   3700.000      -5.083697       17.33388    
   3800.000      -4.853922       16.68125    
   3900.000      -4.657820       16.06586    
   4000.000      -4.490857       15.48485    
   4100.000      -4.349250       14.93562    
   4200.000      -4.229821       14.41581    
   4300.000      -4.129910       13.92330    
   4400.000      -4.071123       13.45680    
   4500.000      -4.004230       13.01489    
   4600.000      -3.965025       12.59534    
   4700.000      -3.923606       12.19649    
   4800.000      -3.892813       11.81681    
   4900.000      -3.871567       11.45506    
   5000.000      -3.871263       11.11095    
   5100.000      -3.866771       10.78311    
   5200.000      -3.869238       10.47007    
   5300.000      -3.878045       10.17092    
   5400.000      -3.892654       9.884828    
   5500.000      -3.916297       9.611330    
   5600.000      -3.941263       9.349474    
   5700.000      -3.970770       9.098536    
   5800.000      -4.004513       8.857901    
   5900.000      -4.042228       8.626995    
   6000.000      -4.083694       8.405287    
   6100.000      -4.128724       8.192280    
   6200.000      -4.177163       7.987512    
   6300.000      -4.228886       7.790549    
   6400.000      -4.283796       7.600993    
   6500.000      -4.341825       7.418463    
   6600.000      -4.402926       7.242608    
   6700.000      -4.467082       7.073098    
   6800.000      -4.534296       6.909620    
   6900.000      -4.604596       6.751888    
   7000.000      -4.678037       6.599625    
   7100.000      -4.754699       6.452576    
   7200.000      -4.834686       6.310499    
   7300.000      -4.918136       6.173166    
   7400.000      -5.005213       6.040364    
   7500.000      -5.096104       5.911889    
   7600.000      -5.205329       5.787830    
   7700.000      -5.304539       5.667888    
   7800.000      -5.417037       5.551813    
   7900.000      -5.525931       5.439576    
   8000.000      -5.640362       5.330782    
   8100.000      -5.760884       5.225290    
   8200.000      -5.888154       5.122963    
   8300.000      -6.022959       5.023671    
   8400.000      -6.166245       4.927293    
   8500.000      -6.319170       4.833712    
   8600.000      -6.483153       4.742817    
   8700.000      -6.659978       4.654507    
   8800.000      -6.857177       4.568743    
   8900.000      -7.067186       4.485394    
   9000.000      -7.295942       4.405556    
   9100.000      -7.550947       4.327926    
   9200.000      -7.839360       4.252421    
   9300.000      -8.171797       4.178961    
   9400.000      -8.564973       4.107471    
   9500.000      -9.047526       4.037878    
   9600.000      -9.676278       3.970142    
   9700.000      -10.58170       3.904178    
   9784.000      -11.86989       3.850089    
   9789.000      -11.97957       3.846907    
   9794.000      -12.09548       3.843729    
   9799.000      -12.21834       3.840555    
   9800.000      -12.24383       3.839920    
   9804.000      -12.34904       3.837385    
   9809.000      -12.48862       3.834219    
   9814.000      -12.63838       3.831057    
   9819.000      -12.79991       3.827899    
   9824.000      -12.97519       3.824746    
   9829.000      -13.16676       3.821596    
   9834.000      -13.37790       3.818451    
   9839.000      -13.61310       3.815310    
   9844.000      -13.87845       3.812172    
   9849.000      -14.18272       3.809039    
   9854.000      -14.53919       3.805910    
   9859.000      -14.96933       3.802784    
   9864.000      -15.51131       3.799663    
   9869.000      -16.24365       3.796546    
   9874.000      -17.37482       3.793433    
   9879.000      -19.96715       3.790324    
   9884.000      -19.29364       10.51068    
   9889.000      -17.13633       10.49839    
   9894.000      -16.07723       10.48614    
   9899.000      -15.36803       10.47392    
   9900.000      -15.25026       10.47148    
   9904.000      -14.83370       10.46173    
   9909.000      -14.40469       10.44957    
   9914.000      -14.04624       10.43744    
   9919.000      -13.73825       10.42534    
   9924.000      -13.46831       10.41327    
   9929.000      -13.22805       10.40124    
   9934.000      -13.01161       10.38923    
   9939.000      -12.81471       10.37725    
   9944.000      -12.63413       10.36531    
   9949.000      -12.46741       10.35339    
   9954.000      -12.31259       10.34151    
   9959.000      -12.16814       10.32965    
   9964.000      -12.03273       10.31783    
   9969.000      -11.90534       10.30603    
   9974.000      -11.78510       10.29427    
   9979.000      -11.67127       10.28253    
   10000.00      -11.25051       10.23356    
   10100.00      -9.955667       10.00729    
   10200.00      -9.204181       9.791944    
   10300.00      -8.708112       9.586830    
   10400.00      -8.369071       9.391335    
   10500.00      -8.143452       9.204880    
   10600.00      -8.011320       9.026935    
   10700.00      -7.969047       8.857012    
   10800.00      -8.021417       8.694707    
   10900.00      -8.202856       8.539549    
   11000.00      -8.616414       8.391144    
   11039.00      -8.911035       8.335019    
   11044.00      -8.958932       8.327892    
   11049.00      -9.009928       8.320781    
   11054.00      -9.064380       8.313685    
   11059.00      -9.122717       8.306605    
   11064.00      -9.185452       8.299541    
   11069.00      -9.253210       8.292492    
   11074.00      -9.326759       8.285459    
   11079.00      -9.407066       8.278440    
   11084.00      -9.495342       8.271439    
   11089.00      -9.593225       8.264451    
   11094.00      -9.702844       8.257478    
   11099.00      -9.827161       8.250521    
   11100.00      -9.854142       8.249130    
   11104.00      -9.970431       8.243579    
   11109.00      -10.13909       8.236651    
   11114.00      -10.34352       8.229739    
   11119.00      -10.60223       8.222842    
   11124.00      -10.95317       8.215961    
   11129.00      -11.49754       8.209094    
   11134.00      -12.74958       8.202242    
   11139.00      -12.41777       11.44912    
   11144.00      -11.37216       11.43995    
   11149.00      -10.85741       11.43079    
   11154.00      -10.51172       11.42165    
   11159.00      -10.25050       11.41253    
   11164.00      -10.04018       11.40343    
   11169.00      -9.863873       11.39435    
   11174.00      -9.711982       11.38528    
   11179.00      -9.578476       11.37623    
   11184.00      -9.459321       11.36720    
   11189.00      -9.351690       11.35818    
   11194.00      -9.253523       11.34918    
   11199.00      -9.163270       11.34020    
   11200.00      -9.146070       11.33841    
   11204.00      -9.079741       11.33124    
   11209.00      -9.002011       11.32229    
   11214.00      -8.929300       11.31336    
   11219.00      -8.861014       11.30445    
   11224.00      -8.796648       11.29555    
   11229.00      -8.735783       11.28667    
   11234.00      -8.678064       11.27780    
   11300.00      -8.112388       11.16236    
   11400.00      -7.621662       10.99282    
   11500.00      -7.379766       10.82945    
   11584.00      -7.385444       10.69679    
   11589.00      -7.395651       10.68902    
   11594.00      -7.407564       10.68127    
   11599.00      -7.421363       10.67353    
   11600.00      -7.424368       10.67198    
   11604.00      -7.437261       10.66580    
   11609.00      -7.455517       10.65809    
   11614.00      -7.476444       10.65039    
   11619.00      -7.500429       10.64270    
   11624.00      -7.527953       10.63504    
   11629.00      -7.559643       10.62738    
   11634.00      -7.596301       10.61974    
   11639.00      -7.639003       10.61211    
   11644.00      -7.689232       10.60449    
   11649.00      -7.749112       10.59689    
   11654.00      -7.821836       10.58930    
   11659.00      -7.912542       10.58173    
   11664.00      -8.030255       10.57417    
   11669.00      -8.193372       10.56663    
   11674.00      -8.449319       10.55909    
   11679.00      -9.018103       10.55157    
   11684.00      -9.004695       12.21829    
   11689.00      -8.403934       12.21049    
   11694.00      -8.116402       12.20272    
   11699.00      -7.921936       12.19495    
   11700.00      -7.889326       12.19340    
   11704.00      -7.772988       12.18720    
   11709.00      -7.651178       12.17946    
   11714.00      -7.547380       12.17174    
   11719.00      -7.456466       12.16402    
   11724.00      -7.375224       12.15632    
   11729.00      -7.301517       12.14864    
   11734.00      -7.233804       12.14096    
   11739.00      -7.172142       12.13330    
   11744.00      -7.113589       12.12565    
   11749.00      -7.058575       12.11802    
   11754.00      -7.006583       12.11039    
   11759.00      -6.957230       12.10278    
   11764.00      -6.910196       12.09519    
   11769.00      -6.865218       12.08760    
