  Element 74: W       Atomic mass:  183.8500

  Edge          keV         A
    K        69.5250    0.1783
    L-I      12.0998    1.0247
    L-II     11.5440    1.0740
    L-III    10.2068    1.2147
    M1        2.8196    4.3972
    M2        2.5749    4.8151
    M3        2.2810    5.4355
    M4        1.8716    6.6245
    M5        1.8092    6.8530

Scattering factors as a function of energy: 

   1000.000      -27.16405       15.35410    
   1100.000      -26.96376       14.11129    
   1200.000      -27.08824       13.02228    
   1300.000      -27.54617       12.05971    
   1400.000      -28.39710       11.20261    
   1500.000      -29.79482       10.43470    
   1600.000      -32.15504       9.743026    
   1700.000      -37.32670       9.117080    
   1712.000      -38.52801       9.046376    
   1717.000      -39.09650       9.017177    
   1722.000      -39.72173       8.988117    
   1727.000      -40.41349       8.959197    
   1732.000      -41.18387       8.930415    
   1737.000      -42.04802       8.901771    
   1742.000      -43.02509       8.873263    
   1747.000      -44.13967       8.844891    
   1752.000      -45.42377       8.816653    
   1757.000      -46.91982       8.788549    
   1762.000      -48.68525       8.760578    
   1767.000      -50.79971       8.732739    
   1772.000      -53.37702       8.705031    
   1774.000      -54.57285       8.693984    
   1777.000      -56.58601       8.677454    
   1779.000      -58.10084       8.666458    
   1782.000      -60.68943       8.650005    
   1784.000      -62.67010       8.639062    
   1787.000      -66.12329       8.622686    
   1789.000      -68.82719       8.611794    
   1792.000      -73.68020       8.595493    
   1794.000      -77.61448       8.584652    
   1797.000      -85.01627       8.568428    
   1799.000      -91.39272       8.557638    
   1800.000      -95.19593       8.552250    
   1802.000      -104.5687       8.541490    
   1804.000      -117.6372       8.530749    
   1807.000      -154.5820       8.514675    
   1809.000      -264.9869       8.503985    
   1812.000      -134.3695       152.3048    
   1814.000      -103.9141       143.9734    
   1817.000      -76.97060       132.4821    
   1819.000      -64.92233       125.4367    
   1822.000      -51.80756       115.7056    
   1824.000      -45.31598       109.7311    
   1827.000      -37.93652       101.4678    
   1829.000      -34.22286       96.38756    
   1832.000      -30.04326       89.35156    
   1834.000      -28.01627       85.01991    
   1837.000      -25.91043       79.01271    
   1839.000      -25.04521       75.30944    
   1842.000      -24.45477       70.16687    
   1844.000      -24.49532       66.99239    
   1847.000      -25.17566       62.57834    
   1849.000      -26.04276       59.84998    
   1852.000      -28.00224       56.05131    
   1854.000      -29.79829       53.70025    
   1857.000      -33.38565       50.42268    
   1859.000      -36.53281       48.39151    
   1862.000      -42.88341       45.55629    
   1864.000      -48.76345       43.79700    
   1867.000      -62.32703       41.33820    
   1869.000      -78.75305       39.81055    
   1872.000      -140.7770       141.0612    
   1874.000      -76.33863       133.8550    
   1877.000      -45.85533       123.8737    
   1879.000      -34.22075       117.7281    
   1882.000      -22.26119       109.2043    
   1884.000      -16.50933       103.9490    
   1887.000      -10.01885       96.65044    
   1889.000      -6.727039       92.14433    
   1892.000      -2.920382       85.87861    
   1894.000     -0.9708419       82.00491    
   1897.000       1.271904       76.61159    
   1899.000       2.405098       73.27290    
   1900.000       2.875760       71.67593    
   1902.000       3.658931       68.61848    
   1904.000       4.255450       65.73351    
   1907.000       4.858583       61.70650    
   1909.000       5.098541       59.20724    
   1914.000       5.257027       53.54372    
   1919.000       4.946798       48.61664    
   1924.000       4.315974       44.31971    
   1929.000       3.468291       40.56322    
   1934.000       2.477422       37.27134    
   1939.000       1.396136       34.37978    
   1944.000      0.2623934       31.83394    
   1949.000     -0.8964987       29.58736    
   1954.000      -2.060983       27.60037    
   1959.000      -3.217204       25.83908    
   1964.000      -4.353546       24.27445    
   1969.000      -5.490107       22.88163    
   2000.000      -11.69286       16.97892    
   2100.000      -25.55367       10.97042    
   2184.000      -35.79024       10.37461    
   2189.000      -36.48941       10.40466    
   2194.000      -37.20726       10.44251    
   2199.000      -37.94548       10.48843    
   2200.000      -38.09577       10.49862    
   2204.000      -38.70610       10.54277    
   2209.000      -39.49123       10.60592    
   2214.000      -40.30320       10.67830    
   2219.000      -41.14476       10.76043    
   2224.000      -42.01888       10.85286    
   2229.000      -42.92918       10.95623    
   2234.000      -43.87977       11.07123    
   2239.000      -44.87585       11.19865    
   2244.000      -45.92380       11.33935    
   2249.000      -47.03224       11.49431    
   2254.000      -48.21300       11.66459    
   2259.000      -49.48423       11.85138    
   2264.000      -50.87622       12.05597    
   2269.000      -52.44926       12.27983    
   2274.000      -54.35975       12.52455    
   2279.000      -57.41340       12.79192    
   2284.000      -57.97238       17.90952    
   2289.000      -57.69864       18.19977    
   2294.000      -58.25729       18.51972    
   2299.000      -59.13349       18.87206    
   2300.000      -59.33451       18.94666    
   2304.000      -60.20807       19.25970    
   2309.000      -61.43675       19.68592    
   2314.000      -62.80020       20.15431    
   2319.000      -64.29047       20.66892    
   2324.000      -65.90522       21.23417    
   2329.000      -67.64602       21.85507    
   2334.000      -69.51664       22.53713    
   2339.000      -71.52272       23.28645    
   2344.000      -73.67165       24.10994    
   2349.000      -75.97108       25.01518    
   2354.000      -33.94523       25.61932    
   2359.000      -34.36792       25.69833    
   2364.000      -34.82689       25.79128    
   2369.000      -35.32352       25.89934    
   2374.000      -35.85944       26.02384    
   2379.000      -36.43644       26.16623    
   2400.000      -39.37330       26.99964    
   2477.000      -16.03130       28.60967    
   2482.000      -15.96427       28.51912    
   2487.000      -15.90085       28.42921    
   2492.000      -15.84117       28.33991    
   2497.000      -15.78541       28.25124    
   2500.000      -15.75392       28.19832    
   2502.000      -15.73378       28.16317    
   2507.000      -15.68659       28.07571    
   2512.000      -15.64419       27.98884    
   2517.000      -15.60708       27.90257    
   2522.000      -15.57588       27.81689    
   2527.000      -15.55144       27.73180    
   2532.000      -15.53488       27.64728    
   2537.000      -15.52777       27.56334    
   2542.000      -15.53239       27.47996    
   2547.000      -15.55217       27.39715    
   2552.000      -15.59262       27.31490    
   2557.000      -15.66339       27.23321    
   2562.000      -15.78388       27.15206    
   2567.000      -16.00302       27.07147    
   2572.000      -16.53066       26.99141    
   2577.000      -16.65169       28.80735    
   2582.000      -15.83817       28.71551    
   2587.000      -15.44400       28.62456    
   2592.000      -15.16635       28.53446    
   2597.000      -14.94542       28.44523    
   2600.000      -14.83008       28.39210    
   2602.000      -14.75857       28.35684    
   2607.000      -14.59476       28.26928    
   2612.000      -14.44774       28.18256    
   2617.000      -14.31360       28.09664    
   2622.000      -14.18976       28.01154    
   2627.000      -14.07441       27.92722    
   2632.000      -13.96623       27.84370    
   2637.000      -13.86422       27.76095    
   2642.000      -13.76761       27.67897    
   2647.000      -13.67581       27.59775    
   2652.000      -13.58832       27.51728    
   2657.000      -13.50477       27.43756    
   2662.000      -13.42482       27.35858    
   2667.000      -13.34820       27.28032    
   2672.000      -13.27471       27.20278    
   2700.000      -12.91354       26.78158    
   2722.000      -12.68289       26.46559    
   2727.000      -12.63668       26.39555    
   2732.000      -12.59282       26.32615    
   2737.000      -12.55137       26.25740    
   2742.000      -12.51243       26.18928    
   2747.000      -12.47611       26.12179    
   2752.000      -12.44260       26.05492    
   2757.000      -12.41210       25.98868    
   2762.000      -12.38489       25.92305    
   2767.000      -12.36137       25.85803    
   2772.000      -12.34209       25.79362    
   2777.000      -12.30965       25.72979    
   2782.000      -12.30104       25.66656    
   2787.000      -12.29968       25.60393    
   2792.000      -12.30769       25.54189    
   2797.000      -12.32848       25.48043    
   2800.000      -12.34941       25.44383    
   2802.000      -12.36809       25.41955    
   2807.000      -12.43877       25.35926    
   2812.000      -12.57201       25.29954    
   2817.000      -12.91095       25.24040    
   2822.000      -12.89176       26.32132    
   2827.000      -12.43459       26.26119    
   2832.000      -12.19997       26.20170    
   2837.000      -12.03072       26.14284    
   2842.000      -11.89355       26.08462    
   2847.000      -11.77567       26.02702    
   2852.000      -11.67076       25.97005    
   2857.000      -11.57524       25.91370    
   2862.000      -11.48686       25.85797    
   2867.000      -11.40413       25.80286    
   2872.000      -11.32599       25.74836    
   2877.000      -11.25168       25.69446    
   2882.000      -11.18062       25.64118    
   2887.000      -11.11235       25.58850    
   2892.000      -11.04652       25.53642    
   2897.000      -10.98283       25.48494    
   2900.000      -10.94554       25.45434    
   2902.000      -10.92105       25.43406    
   2907.000      -10.86097       25.38377    
   2912.000      -10.80243       25.33407    
   2917.000      -10.74528       25.28496    
   3000.000      -9.267033       24.47821    
   3100.000      -8.360832       23.41385    
   3200.000      -7.622227       22.41679    
   3300.000      -7.005919       21.48112    
   3400.000      -6.490623       20.60233    
   3500.000      -6.049397       19.77615    
   3600.000      -5.672909       18.99777    
   3700.000      -5.381924       18.26636    
   3800.000      -5.114309       17.58213    
   3900.000      -4.881236       16.93711    
   4000.000      -4.681384       16.32804    
   4100.000      -4.510326       15.75220    
   4200.000      -4.364367       15.20716    
   4300.000      -4.240396       14.69066    
   4400.000      -4.135776       14.20071    
   4500.000      -4.048256       13.73545    
   4600.000      -3.982302       13.29349    
   4700.000      -3.940986       12.87401    
   4800.000      -3.894482       12.47466    
   4900.000      -3.874127       12.09427    
   5000.000      -3.848031       11.73175    
   5100.000      -3.830582       11.38569    
   5200.000      -3.832968       11.05574    
   5300.000      -3.830809       10.74097    
   5400.000      -3.835030       10.43989    
   5500.000      -3.845084       10.15170    
   5600.000      -3.860493       9.875642    
   5700.000      -3.885789       9.611321    
   5800.000      -3.910854       9.358002    
   5900.000      -3.940138       9.114902    
   6000.000      -3.973367       8.881461    
   6100.000      -4.010304       8.657160    
   6200.000      -4.050748       8.441515    
   6300.000      -4.094527       8.234071    
   6400.000      -4.141499       8.034409    
   6500.000      -4.191548       7.842131    
   6600.000      -4.244585       7.656868    
   6700.000      -4.300541       7.478273    
   6800.000      -4.359374       7.306020    
   6900.000      -4.421059       7.139807    
   7000.000      -4.485596       6.979345    
   7100.000      -4.553007       6.824364    
   7200.000      -4.623332       6.674612    
   7300.000      -4.696637       6.529849    
   7400.000      -4.773009       6.389851    
   7500.000      -4.852562       6.254405    
   7600.000      -4.935437       6.123310    
   7700.000      -5.021801       5.996378    
   7800.000      -5.111863       5.873429    
   7900.000      -5.214321       5.754490    
   8000.000      -5.318171       5.639340    
   8100.000      -5.420828       5.527772    
   8200.000      -5.536862       5.419830    
   8300.000      -5.649724       5.315117    
   8400.000      -5.768508       5.213473    
   8500.000      -5.893868       5.114773    
   8600.000      -6.026589       5.018902    
   8700.000      -6.167629       4.925751    
   8800.000      -6.318194       4.835214    
   8900.000      -6.479867       4.747193    
   9000.000      -6.650518       4.662895    
   9100.000      -6.835082       4.580926    
   9200.000      -7.036164       4.501199    
   9300.000      -7.257286       4.423628    
   9400.000      -7.502910       4.348136    
   9500.000      -7.779598       4.274646    
   9600.000      -8.096841       4.203084    
   9700.000      -8.469337       4.133384    
   9800.000      -8.921706       4.065477    
   9900.000      -9.501347       3.999308    
   10000.00      -10.30849       3.934846    
   10100.00      -11.66499       3.872004    
   10109.00      -11.84652       3.866426    
   10114.00      -11.95484       3.863332    
   10119.00      -12.06925       3.860242    
   10124.00      -12.19044       3.857157    
   10129.00      -12.31932       3.854074    
   10134.00      -12.45688       3.850996    
   10139.00      -12.60438       3.847922    
   10144.00      -12.76335       3.844852    
   10149.00      -12.93571       3.841785    
   10154.00      -13.12388       3.838722    
   10159.00      -13.33104       3.835663    
   10164.00      -13.56137       3.832609    
   10169.00      -13.82076       3.829557    
   10174.00      -14.11744       3.826510    
   10179.00      -14.46384       3.823466    
   10184.00      -14.87982       3.820426    
   10189.00      -15.40018       3.817390    
   10194.00      -16.09469       3.814358    
   10199.00      -17.14028       3.811330    
   10200.00      -17.43011       3.810725    
   10204.00      -19.30867       3.808305    
   10209.00      -19.84002       10.49612    
   10214.00      -17.30186       10.48434    
   10219.00      -16.16914       10.47259    
   10224.00      -15.42956       10.46087    
   10229.00      -14.87902       10.44917    
   10234.00      -14.44011       10.43750    
   10239.00      -14.07501       10.42587    
   10244.00      -13.76241       10.41426    
   10249.00      -13.48913       10.40268    
   10254.00      -13.24629       10.39112    
   10259.00      -13.02784       10.37959    
   10264.00      -12.82933       10.36810    
   10269.00      -12.64746       10.35663    
   10274.00      -12.47966       10.34518    
   10279.00      -12.32395       10.33377    
   10284.00      -12.17870       10.32238    
   10289.00      -12.04266       10.31102    
   10294.00      -11.91469       10.29969    
   10299.00      -11.79394       10.28838    
   10300.00      -11.77058       10.28613    
   10304.00      -11.67965       10.27711    
   10400.00      -10.21051       10.06571    
   10500.00      -9.357957       9.855497    
   10600.00      -8.801149       9.654873    
   10700.00      -8.415267       9.463279    
   10800.00      -8.146433       9.280190    
   10900.00      -7.968775       9.105125    
   11000.00      -7.870358       8.937635    
   11100.00      -7.849692       8.777307    
   11200.00      -7.919425       8.623779    
   11300.00      -8.106401       8.476704    
   11400.00      -8.507141       8.335712    
   11447.00      -8.854424       8.271457    
   11452.00      -8.902826       8.264695    
   11457.00      -8.954319       8.257947    
   11462.00      -9.009262       8.251212    
   11467.00      -9.068082       8.244493    
   11472.00      -9.131292       8.237786    
   11477.00      -9.199520       8.231094    
   11482.00      -9.273537       8.224416    
   11487.00      -9.354308       8.217751    
   11492.00      -9.443049       8.211102    
   11497.00      -9.541404       8.204464    
   11500.00      -9.605893       8.200488    
   11502.00      -9.651508       8.197841    
   11507.00      -9.776338       8.191231    
   11512.00      -9.920170       8.184635    
   11517.00      -10.08948       8.178052    
   11522.00      -10.29474       8.171483    
   11527.00      -10.55463       8.164928    
   11532.00      -10.90765       8.158387    
   11537.00      -11.45715       8.151859    
   11542.00      -12.74213       8.145344    
   11547.00      -12.32656       11.38424    
   11552.00      -11.30610       11.37539    
   11557.00      -10.79811       11.36656    
   11562.00      -10.45594       11.35775    
   11567.00      -10.19706       11.34895    
   11572.00      -9.988491       11.34017    
   11577.00      -9.813594       11.33140    
   11582.00      -9.662899       11.32265    
   11587.00      -9.530440       11.31392    
   11592.00      -9.412224       11.30520    
   11597.00      -9.305449       11.29650    
   11600.00      -9.245997       11.29128    
   11602.00      -9.208071       11.28781    
   11607.00      -9.118555       11.27914    
   11612.00      -9.035719       11.27049    
   11617.00      -8.958645       11.26185    
   11622.00      -8.886558       11.25323    
   11627.00      -8.818865       11.24463    
   11632.00      -8.755068       11.23604    
   11637.00      -8.694748       11.22746    
   11642.00      -8.637555       11.21890    
   11700.00      -8.131178       11.12076    
   11800.00      -7.619513       10.95635    
   11900.00      -7.357186       10.79776    
   12000.00      -7.344687       10.64473    
   12002.00      -7.348502       10.64173    
   12007.00      -7.359129       10.63422    
   12012.00      -7.371437       10.62673    
   12017.00      -7.385604       10.61925    
   12022.00      -7.401841       10.61179    
   12027.00      -7.420402       10.60434    
   12032.00      -7.441592       10.59690    
   12037.00      -7.465800       10.58948    
   12042.00      -7.493498       10.58206    
   12047.00      -7.525294       10.57467    
   12052.00      -7.561977       10.56728    
   12057.00      -7.604600       10.55991    
   12062.00      -7.654611       10.55255    
   12067.00      -7.714077       10.54520    
   12072.00      -7.786084       10.53787    
   12077.00      -7.875618       10.53054    
   12082.00      -7.991353       10.52324    
   12087.00      -8.150715       10.51594    
   12092.00      -8.397880       10.50866    
   12097.00      -8.925546       10.50139    
   12100.00      -10.31947       12.16490    
   12102.00      -9.041004       12.16187    
   12107.00      -8.396538       12.15430    
   12112.00      -8.100979       12.14674    
   12117.00      -7.904796       12.13919    
   12122.00      -7.754748       12.13165    
   12127.00      -7.632476       12.12413    
   12132.00      -7.528574       12.11662    
   12137.00      -7.437747       12.10912    
   12142.00      -7.356708       12.10163    
   12147.00      -7.283283       12.09416    
   12152.00      -7.215954       12.08670    
   12157.00      -7.153632       12.07925    
   12162.00      -7.095469       12.07181    
   12167.00      -7.040847       12.06438    
