  Element 40: Zr      Atomic mass:   91.2200

  Edge          keV         A
    K        17.9976    0.6889
    L-I       2.5316    4.8975
    L-II      2.3067    5.3750
    L-III     2.2223    5.5791

Scattering factors as a function of energy: 

   1000.000      -6.642362       8.734132    
   1100.000      -6.545239       7.736066    
   1200.000      -6.562346       6.902965    
   1300.000      -6.669322       6.199037    
   1400.000      -6.892981       5.602530    
   1500.000      -7.157197       5.093545    
   1600.000      -7.499603       4.653351    
   1700.000      -7.936108       4.269691    
   1800.000      -8.504502       3.933748    
   1900.000      -9.257581       3.637491    
   2000.000      -10.32659       3.374538    
   2100.000      -12.09052       3.139908    
   2125.000      -12.76864       3.085186    
   2130.000      -12.92485       3.074418    
   2135.000      -13.08960       3.063708    
   2140.000      -13.26389       3.053056    
   2145.000      -13.44885       3.042461    
   2150.000      -13.64588       3.031922    
   2155.000      -13.85664       3.021440    
   2160.000      -14.08321       3.011013    
   2165.000      -14.32813       3.000642    
   2170.000      -14.59470       2.990325    
   2175.000      -14.88713       2.980064    
   2180.000      -15.21110       2.969856    
   2185.000      -15.57436       2.959703    
   2190.000      -15.98809       2.949602    
   2195.000      -16.46899       2.939555    
   2200.000      -17.04408       2.929561    
   2205.000      -17.76099       2.919619    
   2209.000      -18.49869       2.911702    
   2210.000      -18.71713       2.909728    
   2214.000      -19.81165       2.901853    
   2215.000      -20.16741       2.899889    
   2219.000      -22.35715       2.892055    
   2220.000      -23.34879       2.890102    
   2224.000      -24.20207       11.49237    
   2225.000      -22.93410       11.48189    
   2229.000      -20.45737       11.44014    
   2230.000      -20.08195       11.42975    
   2234.000      -18.96495       11.38841    
   2235.000      -18.74899       11.37813    
   2239.000      -18.03878       11.33719    
   2240.000      -17.89069       11.32700    
   2244.000      -17.38221       11.28646    
   2245.000      -17.27242       11.27638    
   2249.000      -16.88727       11.23622    
   2250.000      -16.80270       11.22624    
   2254.000      -16.50317       11.18647    
   2255.000      -16.43698       11.17658    
   2259.000      -16.20257       11.13720    
   2260.000      -16.15098       11.12740    
   2264.000      -15.97013       11.08840    
   2265.000      -15.93098       11.07869    
   2269.000      -15.79757       11.04006    
   2270.000      -15.76990       11.03045    
   2274.000      -15.68187       10.99219    
   2275.000      -15.66562       10.98267    
   2279.000      -15.62492       10.94477    
   2280.000      -15.62115       10.93534    
   2284.000      -15.63488       10.89780    
   2285.000      -15.64629       10.88846    
   2289.000      -15.73060       10.85127    
   2290.000      -15.76305       10.84202    
   2294.000      -15.95426       10.80518    
   2295.000      -16.02175       10.79602    
   2299.000      -16.41843       10.75953    
   2300.000      -16.56531       10.75045    
   2304.000      -17.63224       10.71430    
   2305.000      -18.21758       10.70530    
   2309.000      -17.66007       14.91494    
   2310.000      -17.13339       14.90224    
   2314.000      -15.91392       14.85168    
   2315.000      -15.70542       14.83909    
   2319.000      -15.03929       14.78901    
   2320.000      -14.90123       14.77654    
   2324.000      -14.42043       14.72693    
   2329.000      -13.92930       14.66542    
   2334.000      -13.51664       14.60450    
   2339.000      -13.15794       14.54414    
   2344.000      -12.83918       14.48433    
   2349.000      -12.55155       14.42509    
   2354.000      -12.28905       14.36638    
   2359.000      -12.04746       14.30822    
   2364.000      -11.82363       14.25059    
   2369.000      -11.61519       14.19349    
   2374.000      -11.42026       14.13691    
   2379.000      -11.23736       14.08084    
   2384.000      -11.06527       14.02529    
   2389.000      -10.90302       13.97023    
   2394.000      -10.74977       13.91568    
   2399.000      -10.60486       13.86161    
   2400.000      -10.57681       13.85086    
   2404.000      -10.46768       13.80803    
   2434.000      -9.784998       13.49646    
   2439.000      -9.692221       13.44613    
   2444.000      -9.605075       13.39624    
   2449.000      -9.523550       13.34679    
   2454.000      -9.447677       13.29778    
   2459.000      -9.377565       13.24919    
   2464.000      -9.313403       13.20103    
   2469.000      -9.255463       13.15329    
   2474.000      -9.204151       13.10596    
   2479.000      -9.160028       13.05904    
   2484.000      -9.123878       13.01253    
   2489.000      -9.096794       12.96642    
   2494.000      -9.080338       12.92070    
   2499.000      -9.076793       12.87538    
   2500.000      -9.077911       12.86636    
   2504.000      -9.089654       12.83045    
   2509.000      -9.124594       12.78590    
   2514.000      -9.191660       12.74173    
   2519.000      -9.311273       12.69793    
   2524.000      -9.536001       12.65451    
   2529.000      -10.10505       12.61146    
   2534.000      -10.07569       14.47291    
   2539.000      -9.315393       14.42696    
   2544.000      -8.927536       14.38140    
   2549.000      -8.649334       14.33624    
   2554.000      -8.425249       14.29147    
   2559.000      -8.233850       14.24708    
   2564.000      -8.064596       14.20307    
   2569.000      -7.911468       14.15944    
   2574.000      -7.770727       14.11618    
   2579.000      -7.639854       14.07329    
   2584.000      -7.517093       14.03076    
   2589.000      -7.401159       13.98859    
   2594.000      -7.291067       13.94678    
   2599.000      -7.186069       13.90533    
   2600.000      -7.165626       13.89708    
   2604.000      -7.085554       13.86422    
   2609.000      -6.989048       13.82347    
   2614.000      -6.896139       13.78305    
   2619.000      -6.806505       13.74298    
   2624.000      -6.719854       13.70324    
   2629.000      -6.635954       13.66383    
   2700.000      -5.655754       13.13838    
   2800.000      -4.668425       12.49505    
   2900.000      -3.682396       11.93829    
   3000.000      -2.953542       11.37858    
   3100.000      -2.435093       10.82277    
   3200.000      -2.011164       10.30709    
   3300.000      -1.664134       9.827757    
   3400.000      -1.373285       9.382596    
   3500.000      -1.129205       8.967822    
   3600.000     -0.9226766       8.580647    
   3700.000     -0.7476739       8.218616    
   3800.000     -0.5989958       7.879554    
   3900.000     -0.4724760       7.561515    
   4000.000     -0.3647376       7.262764    
   4100.000     -0.2730123       6.981738    
   4200.000     -0.1950110       6.717036    
   4300.000     -0.1288249       6.467392    
   4400.000     -7.2852679E-02   6.231666    
   4500.000     -2.3611208E-02   6.008677    
   4600.000      1.5816428E-02   5.797515    
   4700.000      4.9729548E-02   5.597317    
   4800.000      7.6498426E-02   5.407416    
   4900.000      9.8070234E-02   5.227124    
   5000.000      0.1150747       5.055795    
   5100.000      0.1267739       4.892887    
   5200.000      0.1361748       4.737895    
   5300.000      0.1424572       4.590232    
   5400.000      0.1459841       4.449438    
   5500.000      0.1470741       4.315087    
   5600.000      0.1460071       4.186788    
   5700.000      0.1430298       4.064177    
   5800.000      0.1383599       3.946919    
   5900.000      0.1321898       3.834704    
   6000.000      0.1246899       3.727243    
   6100.000      0.1160113       3.624269    
   6200.000      0.1062785       3.525531    
   6300.000      9.0881988E-02   3.430907    
   6400.000      7.9445004E-02   3.340075    
   6500.000      6.4451024E-02   3.252852    
   6600.000      5.1673565E-02   3.169065    
   6700.000      3.8334820E-02   3.088496    
   6800.000      2.4501320E-02   3.010980    
   6900.000      1.0232257E-02   2.936364    
   7000.000     -4.4198488E-03   2.864502    
   7100.000     -1.9408206E-02   2.795260    
   7200.000     -3.4691229E-02   2.728511    
   7300.000     -5.0232094E-02   2.664134    
   7400.000     -6.5997995E-02   2.602018    
   7500.000     -8.1960216E-02   2.542057    
   7600.000     -9.8093472E-02   2.484151    
   7700.000     -0.1143757       2.428208    
   7800.000     -0.1307881       2.374137    
   7900.000     -0.1473143       2.321856    
   8000.000     -0.1639409       2.271286    
   8100.000     -0.1814795       2.222356    
   8200.000     -0.1982768       2.175004    
   8300.000     -0.2151514       2.129150    
   8400.000     -0.2321008       2.084733    
   8500.000     -0.2491275       2.041691    
   8600.000     -0.2662383       1.999969    
   8700.000     -0.2834467       1.959513    
   8800.000     -0.3007760       1.920270    
   8900.000     -0.3182632       1.882194    
   9000.000     -0.3348483       1.845644    
   9100.000     -0.3514055       1.810164    
   9200.000     -0.3679336       1.775711    
   9300.000     -0.3844321       1.742245    
   9400.000     -0.4009009       1.709729    
   9500.000     -0.4173409       1.678126    
   9600.000     -0.4337550       1.647403    
   9700.000     -0.4504710       1.617534    
   9800.000     -0.4668640       1.588485    
   9900.000     -0.4832310       1.560223    
   10000.00     -0.4999293       1.532719    
   10100.00     -0.5162502       1.505958    
   10200.00     -0.5325797       1.479902    
   10300.00     -0.5488961       1.454528    
   10400.00     -0.5652027       1.429811    
   10500.00     -0.5815040       1.405728    
   10600.00     -0.5978044       1.382258    
   10700.00     -0.6141084       1.359380    
   10800.00     -0.6304214       1.337073    
   10900.00     -0.6467484       1.315319    
   11000.00     -0.6639542       1.294106    
   11100.00     -0.6803557       1.273427    
   11200.00     -0.6967872       1.253248    
   11300.00     -0.7132556       1.233554    
   11400.00     -0.7297674       1.214330    
   11500.00     -0.7463297       1.195558    
   11600.00     -0.7629499       1.177227    
   11700.00     -0.7796353       1.159321    
   11800.00     -0.7963942       1.141828    
   11900.00     -0.8132344       1.124734    
   12000.00     -0.8301652       1.108028    
   12100.00     -0.8471953       1.091697    
   12200.00     -0.8643339       1.075731    
   12300.00     -0.8815914       1.060117    
   12400.00     -0.8989777       1.044847    
   12500.00     -0.9165040       1.029910    
   12600.00     -0.9341815       1.015296    
   12700.00     -0.9520220       1.000995    
   12800.00     -0.9700384      0.9869993    
   12900.00     -0.9882435      0.9732994    
   13000.00      -1.006652      0.9598868    
   13100.00      -1.025612      0.9467546    
   13200.00      -1.044472      0.9338948    
   13300.00      -1.063581      0.9212989    
   13400.00      -1.082958      0.9089599    
   13500.00      -1.102620      0.8968706    
   13600.00      -1.122587      0.8850242    
   13700.00      -1.142880      0.8734145    
   13800.00      -1.163522      0.8620346    
   13900.00      -1.184537      0.8508788    
   14000.00      -1.205950      0.8399410    
   14100.00      -1.227790      0.8292154    
   14200.00      -1.250085      0.8186968    
   14300.00      -1.272869      0.8083795    
   14400.00      -1.296175      0.7982585    
   14500.00      -1.320041      0.7883287    
   14600.00      -1.344509      0.7785853    
   14700.00      -1.369623      0.7690237    
   14800.00      -1.395431      0.7596391    
   14900.00      -1.421988      0.7504274    
   15000.00      -1.449351      0.7413840    
   15100.00      -1.477585      0.7325050    
   15200.00      -1.506762      0.7237864    
   15300.00      -1.536961      0.7152242    
   15400.00      -1.568271      0.7068148    
   15500.00      -1.600792      0.6985542    
   15600.00      -1.634634      0.6904392    
   15700.00      -1.669923      0.6824662    
   15800.00      -1.706804      0.6746319    
   15900.00      -1.745440      0.6669331    
   16000.00      -1.786018      0.6593666    
   16100.00      -1.828757      0.6519293    
   16200.00      -1.873911      0.6446184    
   16300.00      -1.921775      0.6374310    
   16400.00      -1.972708      0.6303641    
   16500.00      -2.027130      0.6234151    
   16600.00      -2.085557      0.6165814    
   16700.00      -2.148617      0.6098604    
   16800.00      -2.217097      0.6032497    
   16900.00      -2.291992      0.5967467    
   17000.00      -2.374590      0.5903491    
   17100.00      -2.466594      0.5840546    
   17200.00      -2.570323      0.5778611    
   17300.00      -2.689047      0.5717664    
   17400.00      -2.827595      0.5657682    
   17500.00      -2.993497      0.5598646    
   17600.00      -3.199473      0.5540535    
   17700.00      -3.469589      0.5483331    
   17800.00      -3.858493      0.5427015    
   17900.00      -4.543856      0.5371567    
   17905.00      -4.595586      0.5368816    
   17910.00      -4.650245      0.5366069    
   17915.00      -4.708223      0.5363323    
   17920.00      -4.769890      0.5360580    
   17925.00      -4.835763      0.5357839    
   17930.00      -4.906474      0.5355099    
   17935.00      -4.982709      0.5352362    
   17940.00      -5.065457      0.5349627    
   17945.00      -5.155834      0.5346894    
   17950.00      -5.255446      0.5344163    
   17955.00      -5.366268      0.5341434    
   17960.00      -5.491154      0.5338708    
   17965.00      -5.634192      0.5335983    
   17970.00      -5.801332      0.5333261    
   17975.00      -6.002422      0.5330540    
   17980.00      -6.254395      0.5327822    
   17985.00      -6.591977      0.5325105    
   17990.00      -7.103530      0.5322391    
   17995.00      -8.191940      0.5319679    
   18000.00      -8.282978       3.735508    
   18005.00      -7.130785       3.733458    
   18010.00      -6.600930       3.731410    
   18015.00      -6.252527       3.729364    
   18020.00      -5.992099       3.727320    
   18025.00      -5.784032       3.725280    
   18030.00      -5.610548       3.723240    
   18035.00      -5.461806       3.721204    
   18040.00      -5.331486       3.719170    
   18045.00      -5.215569       3.717138    
   18050.00      -5.111124       3.715109    
   18055.00      -5.016028       3.713081    
   18060.00      -4.928790       3.711057    
   18065.00      -4.848138       3.709034    
   18070.00      -4.773190       3.707014    
   18075.00      -4.703132       3.704995    
   18080.00      -4.637405       3.702980    
   18085.00      -4.575476       3.700967    
   18090.00      -4.516902       3.698955    
   18095.00      -4.461375       3.696947    
   18100.00      -4.408550       3.694940    
   18200.00      -3.683474       3.655283    
   18300.00      -3.250273       3.616511    
   18400.00      -2.939430       3.578598    
   18500.00      -2.696783       3.541520    
   18600.00      -2.497897       3.505253    
   18700.00      -2.329605       3.469773    
   18800.00      -2.183974       3.435061    
   18900.00      -2.055821       3.401093    
   19000.00      -1.941632       3.367848    
   19100.00      -1.838817       3.335308    
   19200.00      -1.745480       3.303453    
   19300.00      -1.660167       3.272266    
   19400.00      -1.581733       3.241726    
   19500.00      -1.509265       3.211818    
   19600.00      -1.442024       3.182525    
   19700.00      -1.379398       3.153830    
   19800.00      -1.320879       3.125719    
   19900.00      -1.266033       3.098175    
   20000.00      -1.214495       3.071184    
   20100.00      -1.165949       3.044732    
   20200.00      -1.120124       3.018806    
   20300.00      -1.076781       2.993392    
   20400.00      -1.035709       2.968477    
   20500.00     -0.9967245       2.944049    
   20600.00     -0.9596635       2.920095    
   20700.00     -0.9243795       2.896605    
   20800.00     -0.8907421       2.873568    
   20900.00     -0.8586319       2.850971    
   21000.00     -0.8279431       2.828804    
   21100.00     -0.7985790       2.807057    
   21200.00     -0.7704518       2.785720    
   21300.00     -0.7434819       2.764785    
   21400.00     -0.7175949       2.744239    
   21500.00     -0.6927240       2.724076    
   21600.00     -0.6688075       2.704286    
   21700.00     -0.6457884       2.684860    
   21800.00     -0.6236143       2.665792    
   21900.00     -0.6022357       2.647070    
   22000.00     -0.5816079       2.628689    
   22100.00     -0.5616887       2.610641    
   22200.00     -0.5424391       2.592918    
   22300.00     -0.5238228       2.575513    
   22400.00     -0.5058051       2.558419    
   22500.00     -0.4883544       2.541630    
   22600.00     -0.4714407       2.525137    
   22700.00     -0.4550360       2.508937    
   22800.00     -0.4391142       2.493021    
   22900.00     -0.4236498       2.477385    
   23000.00     -0.4086198       2.462021    
   23100.00     -0.3940018       2.446924    
   23200.00     -0.3797751       2.432089    
   23300.00     -0.3659193       2.417511    
   23400.00     -0.2857906       2.403091    
   23500.00     -0.2713985       2.386090    
   23600.00     -0.2574705       2.369267    
   23700.00     -0.2439419       2.352618    
   23800.00     -0.2307981       2.336141    
   23900.00     -0.2180250       2.319834    
   24000.00     -0.2056099       2.303694    
   24100.00     -0.1935405       2.287719    
   24200.00     -0.1818050       2.271906    
   24300.00     -0.1703924       2.256255    
   24400.00     -0.1592916       2.240761    
   24500.00     -0.1484925       2.225424    
   24600.00     -0.1379855       2.210240    
   24700.00     -0.1277611       2.195209    
   24800.00     -0.1178106       2.180328    
   24900.00     -0.1081250       2.165594    
